# OpenSignals Text File Format. Version 1
# {"20:15:12:22:81:68": {"sensor": ["ACCBITREV", "OXIBIT", "HR"], "device name": "20:15:12:22:81:68", "column": ["nSeq", "I1", "I2", "O1", "O2", "A1", "A2", "A3"], "sync interval": 2, "time": "15:46:58.585", "comments": "", "device connection": "BTH20:15:12:22:81:68", "channels": [1, 2, 3], "keywords": "", "convertedValues": 1, "mode": 0, "digital IO": [0, 0, 1, 1], "firmware version": "1280", "device": "bitalino_rev", "position": 0, "sampling rate": 100, "label": ["A1", "A2", "A3"], "resolution": [4, 1, 1, 1, 1, 10, 10, 10], "date": "2019-11-6", "special": [{}, {}, {}]}}
# EndOfHeader
0.0	0.0	0.0	0.0	0.0	0.212	89.0	57.0	
1.0	0.0	0.0	0.0	0.0	0.144	89.0	57.0	
2.0	0.0	0.0	0.0	0.0	0.077	88.4	56.2	
3.0	0.0	0.0	0.0	0.0	0.144	89.0	57.0	
4.0	0.0	0.0	0.0	0.0	0.173	89.0	57.0	
5.0	0.0	0.0	0.0	0.0	0.154	89.0	57.2	
6.0	0.0	0.0	0.0	0.0	0.125	88.7	56.0	
7.0	0.0	0.0	0.0	0.0	0.144	89.0	57.0	
8.0	0.0	0.0	0.0	0.0	0.192	89.0	57.0	
9.0	0.0	0.0	0.0	0.0	0.077	89.0	56.7	
10.0	0.0	0.0	0.0	0.0	-0.212	88.7	56.4	
11.0	0.0	0.0	0.0	0.0	-0.394	88.7	57.0	
12.0	0.0	0.0	0.0	0.0	-0.51	89.0	57.0	
13.0	0.0	0.0	0.0	0.0	-0.712	89.0	57.0	
14.0	0.0	0.0	0.0	0.0	-0.923	88.7	56.4	
15.0	0.0	0.0	0.0	0.0	-1.029	88.7	56.7	
0.0	0.0	0.0	0.0	0.0	-1.115	89.0	57.0	
1.0	0.0	0.0	0.0	0.0	-1.298	89.0	57.0	
2.0	0.0	0.0	0.0	0.0	-1.413	88.7	56.4	
3.0	0.0	0.0	0.0	0.0	-1.702	89.0	57.0	
4.0	0.0	0.0	1.0	0.0	-1.288	89.0	57.0	
5.0	0.0	0.0	1.0	0.0	-1.327	89.0	57.4	
6.0	0.0	0.0	1.0	0.0	-1.471	87.7	55.0	
7.0	0.0	0.0	1.0	0.0	-1.317	89.0	57.0	
8.0	0.0	0.0	1.0	0.0	-1.154	89.0	57.0	
9.0	0.0	0.0	1.0	0.0	-1.192	89.0	57.2	
10.0	0.0	0.0	1.0	0.0	-1.231	87.7	54.7	
11.0	0.0	0.0	1.0	0.0	-1.231	89.0	57.4	
12.0	0.0	0.0	1.0	0.0	-1.173	89.0	57.0	
13.0	0.0	0.0	1.0	0.0	-1.115	89.0	57.2	
14.0	0.0	0.0	1.0	0.0	-1.058	88.0	54.7	
15.0	0.0	0.0	1.0	0.0	-1.01	89.0	58.2	
0.0	0.0	0.0	1.0	0.0	-0.962	89.0	57.0	
1.0	0.0	0.0	1.0	0.0	-0.846	89.0	57.4	
2.0	0.0	0.0	1.0	0.0	-0.808	88.2	55.2	
3.0	0.0	0.0	1.0	0.0	-0.692	88.7	58.4	
4.0	0.0	0.0	1.0	0.0	-0.596	89.0	57.0	
5.0	0.0	0.0	1.0	0.0	-0.596	89.0	57.0	
6.0	0.0	0.0	1.0	0.0	-0.683	88.7	56.0	
7.0	0.0	0.0	1.0	0.0	-0.654	88.7	58.4	
8.0	0.0	0.0	1.0	0.0	-0.558	89.0	57.0	
9.0	0.0	0.0	1.0	0.0	-0.423	89.0	57.2	
10.0	0.0	0.0	1.0	0.0	-0.308	89.0	55.7	
11.0	0.0	0.0	1.0	0.0	-0.25	88.7	58.4	
12.0	0.0	0.0	1.0	0.0	-0.25	88.7	57.0	
13.0	0.0	0.0	1.0	0.0	-0.269	89.0	57.0	
14.0	0.0	0.0	1.0	0.0	-0.346	89.0	55.7	
15.0	0.0	0.0	1.0	0.0	-0.394	88.7	58.4	
0.0	0.0	0.0	1.0	0.0	-0.5	89.0	57.0	
1.0	0.0	0.0	1.0	0.0	-0.548	89.0	57.0	
2.0	0.0	0.0	1.0	0.0	-0.587	89.0	56.0	
3.0	0.0	0.0	1.0	0.0	-0.538	88.7	58.2	
4.0	0.0	0.0	1.0	0.0	-0.529	89.0	57.0	
5.0	0.0	0.0	1.0	0.0	-0.538	89.0	57.0	
6.0	0.0	0.0	1.0	0.0	-0.663	88.7	56.4	
7.0	0.0	0.0	1.0	0.0	-0.779	88.7	58.0	
8.0	0.0	0.0	1.0	0.0	-0.587	89.0	57.0	
9.0	0.0	0.0	1.0	0.0	-0.163	89.0	57.0	
10.0	0.0	0.0	1.0	0.0	0.173	88.7	56.7	
11.0	0.0	0.0	1.0	0.0	0.038	88.7	57.7	
12.0	0.0	0.0	1.0	0.0	-0.202	89.0	57.0	
13.0	0.0	0.0	1.0	0.0	-0.279	89.0	57.0	
14.0	0.0	0.0	1.0	0.0	-0.25	88.7	56.0	
15.0	0.0	0.0	1.0	0.0	-0.163	88.7	57.4	
0.0	0.0	0.0	1.0	0.0	-0.221	89.0	57.0	
1.0	0.0	0.0	1.0	0.0	-0.087	89.0	57.0	
2.0	0.0	0.0	1.0	0.0	-0.038	89.0	57.0	
3.0	0.0	0.0	1.0	0.0	-0.048	88.7	57.2	
4.0	0.0	0.0	1.0	0.0	0.01	89.0	57.0	
5.0	0.0	0.0	1.0	0.0	0.106	89.0	57.0	
6.0	0.0	0.0	1.0	0.0	0.144	88.7	56.7	
7.0	0.0	0.0	1.0	0.0	0.135	88.4	57.0	
8.0	0.0	0.0	1.0	0.0	0.192	88.7	56.7	
9.0	0.0	0.0	1.0	0.0	0.231	89.0	57.2	
10.0	0.0	0.0	1.0	0.0	0.25	89.0	56.0	
11.0	0.0	0.0	1.0	0.0	0.192	88.7	57.0	
12.0	0.0	0.0	1.0	0.0	0.144	89.0	57.0	
13.0	0.0	0.0	1.0	0.0	0.154	89.0	57.0	
14.0	0.0	0.0	1.0	0.0	0.154	89.0	56.2	
15.0	0.0	0.0	1.0	0.0	0.192	88.4	57.0	
0.0	0.0	0.0	1.0	0.0	0.26	89.0	57.0	
1.0	0.0	0.0	1.0	0.0	0.317	89.0	57.0	
2.0	0.0	0.0	1.0	0.0	0.231	89.0	57.2	
3.0	0.0	0.0	1.0	0.0	0.106	88.4	56.4	
4.0	0.0	0.0	1.0	0.0	0.096	89.4	57.0	
5.0	0.0	0.0	1.0	0.0	0.115	89.0	57.0	
6.0	0.0	0.0	1.0	0.0	0.115	89.0	57.2	
7.0	0.0	0.0	1.0	0.0	0.038	88.4	56.7	
8.0	0.0	0.0	1.0	0.0	0.029	90.0	57.0	
9.0	0.0	0.0	1.0	0.0	-0.087	89.0	56.7	
10.0	0.0	0.0	1.0	0.0	-0.221	88.7	56.4	
11.0	0.0	0.0	1.0	0.0	-0.298	88.7	56.2	
12.0	0.0	0.0	1.0	0.0	-0.192	90.0	57.0	
13.0	0.0	0.0	1.0	0.0	-0.115	89.0	57.2	
14.0	0.0	0.0	1.0	0.0	-0.154	89.0	56.4	
15.0	0.0	0.0	1.0	0.0	-0.183	88.4	56.4	
0.0	0.0	0.0	1.0	0.0	-0.346	89.7	56.7	
1.0	0.0	0.0	1.0	0.0	-0.529	89.0	57.2	
2.0	0.0	0.0	1.0	0.0	-0.635	89.0	57.0	
3.0	0.0	0.0	1.0	0.0	-0.683	88.7	56.0	
4.0	0.0	0.0	1.0	0.0	-0.663	89.4	57.0	
5.0	0.0	0.0	1.0	0.0	-0.558	89.0	57.0	
6.0	0.0	0.0	1.0	0.0	-0.538	89.0	56.2	
7.0	0.0	0.0	1.0	0.0	-0.76	89.0	56.2	
8.0	0.0	0.0	1.0	0.0	-0.817	89.2	57.0	
9.0	0.0	0.0	1.0	0.0	-0.798	89.0	57.0	
10.0	0.0	0.0	1.0	0.0	-0.721	89.0	56.2	
11.0	0.0	0.0	1.0	0.0	-0.625	88.7	56.7	
12.0	0.0	0.0	1.0	0.0	-0.567	89.0	57.0	
13.0	0.0	0.0	1.0	0.0	-0.587	89.0	57.0	
14.0	0.0	0.0	1.0	0.0	-0.654	89.0	57.0	
15.0	0.0	0.0	1.0	0.0	-0.702	88.7	56.2	
0.0	0.0	0.0	1.0	0.0	-0.731	89.0	57.0	
1.0	0.0	0.0	1.0	0.0	-0.769	89.0	57.2	
2.0	0.0	0.0	1.0	0.0	-0.779	89.0	57.2	
3.0	0.0	0.0	1.0	0.0	-0.702	88.7	56.2	
4.0	0.0	0.0	1.0	0.0	-0.731	88.7	57.0	
5.0	0.0	0.0	1.0	0.0	-0.817	89.0	57.0	
6.0	0.0	0.0	1.0	0.0	-0.942	89.0	57.0	
7.0	0.0	0.0	1.0	0.0	-1.0	88.7	56.0	
8.0	0.0	0.0	1.0	0.0	-0.981	88.7	57.0	
9.0	0.0	0.0	1.0	0.0	-0.942	89.0	57.0	
10.0	0.0	0.0	1.0	0.0	-0.856	89.0	57.0	
11.0	0.0	0.0	1.0	0.0	-0.779	88.7	56.4	
12.0	0.0	0.0	1.0	0.0	-0.798	89.0	57.0	
13.0	0.0	0.0	1.0	0.0	-0.846	89.0	57.0	
14.0	0.0	0.0	1.0	0.0	-0.913	89.0	57.2	
15.0	0.0	0.0	1.0	0.0	-0.856	88.4	55.7	
0.0	0.0	0.0	1.0	0.0	-0.769	89.0	57.0	
1.0	0.0	0.0	1.0	0.0	-0.798	89.0	57.0	
2.0	0.0	0.0	1.0	0.0	-0.76	89.0	57.2	
3.0	0.0	0.0	1.0	0.0	-0.683	88.0	55.0	
4.0	0.0	0.0	1.0	0.0	-0.635	89.0	57.0	
5.0	0.0	0.0	1.0	0.0	-0.625	89.0	57.0	
6.0	0.0	0.0	1.0	0.0	-0.625	89.0	57.0	
7.0	0.0	0.0	1.0	0.0	-0.596	87.7	54.7	
8.0	0.0	0.0	1.0	0.0	-0.567	89.0	57.0	
9.0	0.0	0.0	1.0	0.0	-0.577	89.0	57.0	
10.0	0.0	0.0	1.0	0.0	-0.587	89.0	57.2	
11.0	0.0	0.0	1.0	0.0	-0.596	87.7	54.7	
12.0	0.0	0.0	1.0	0.0	-0.567	89.0	57.7	
13.0	0.0	0.0	1.0	0.0	-0.529	89.0	57.0	
14.0	0.0	0.0	1.0	0.0	-0.538	89.0	57.2	
15.0	0.0	0.0	1.0	0.0	-0.519	88.0	55.2	
0.0	0.0	0.0	1.0	0.0	-0.49	89.0	58.4	
1.0	0.0	0.0	1.0	0.0	-0.5	89.0	57.0	
2.0	0.0	0.0	1.0	0.0	-0.529	89.0	57.2	
3.0	0.0	0.0	1.0	0.0	-0.577	88.2	56.0	
4.0	0.0	0.0	1.0	0.0	-0.567	88.7	58.4	
5.0	0.0	0.0	1.0	0.0	-0.538	89.0	57.0	
6.0	0.0	0.0	1.0	0.0	-0.558	89.2	57.0	
7.0	0.0	0.0	1.0	0.0	-0.606	88.7	55.7	
8.0	0.0	0.0	1.0	0.0	-0.625	89.0	58.4	
9.0	0.0	0.0	1.0	0.0	-0.615	89.0	57.0	
10.0	0.0	0.0	1.0	0.0	-0.606	89.0	57.2	
11.0	0.0	0.0	1.0	0.0	-0.606	89.0	56.0	
12.0	0.0	0.0	1.0	0.0	-0.596	88.7	58.4	
13.0	0.0	0.0	1.0	0.0	-0.625	89.0	57.0	
14.0	0.0	0.0	1.0	0.0	-0.683	89.0	57.4	
15.0	0.0	0.0	1.0	0.0	-0.731	89.0	56.0	
0.0	0.0	0.0	1.0	0.0	-0.721	89.0	58.2	
1.0	0.0	0.0	1.0	0.0	-0.702	89.0	57.0	
2.0	0.0	0.0	1.0	0.0	-0.731	89.0	57.0	
3.0	0.0	0.0	1.0	0.0	-0.788	88.7	56.4	
4.0	0.0	0.0	1.0	0.0	-0.904	88.7	58.0	
5.0	0.0	0.0	1.0	0.0	-0.933	89.0	57.0	
6.0	0.0	0.0	1.0	0.0	-0.99	89.0	57.4	
7.0	0.0	0.0	1.0	0.0	-1.029	89.0	56.2	
8.0	0.0	0.0	1.0	0.0	-1.067	88.7	58.0	
9.0	0.0	0.0	1.0	0.0	-1.096	89.0	57.0	
10.0	0.0	0.0	1.0	0.0	-1.202	89.0	57.2	
11.0	0.0	0.0	1.0	0.0	-1.308	88.7	56.4	
12.0	0.0	0.0	1.0	0.0	-1.356	88.7	57.4	
13.0	0.0	0.0	1.0	0.0	-1.365	89.0	57.0	
14.0	0.0	0.0	1.0	0.0	-1.317	89.0	57.2	
15.0	0.0	0.0	1.0	0.0	-1.288	88.7	56.7	
0.0	0.0	0.0	1.0	0.0	-1.183	88.7	57.4	
1.0	0.0	0.0	1.0	0.0	-1.0	89.0	57.0	
2.0	0.0	0.0	1.0	0.0	-0.875	89.0	57.0	
3.0	0.0	0.0	1.0	0.0	-0.779	89.0	57.0	
4.0	0.0	0.0	1.0	0.0	-0.702	88.7	57.4	
5.0	0.0	0.0	1.0	0.0	-0.481	89.0	57.0	
6.0	0.0	0.0	1.0	0.0	-0.327	89.0	57.0	
7.0	0.0	0.0	1.0	0.0	-0.24	89.0	56.7	
8.0	0.0	0.0	1.0	0.0	-0.183	88.4	57.2	
9.0	0.0	0.0	1.0	0.0	-0.115	89.0	57.0	
10.0	0.0	0.0	1.0	0.0	-0.067	89.0	57.0	
11.0	0.0	0.0	1.0	0.0	-0.048	89.0	56.0	
12.0	0.0	0.0	1.0	0.0	0.01	88.7	57.0	
13.0	0.0	0.0	1.0	0.0	0.173	89.0	57.0	
14.0	0.0	0.0	1.0	0.0	0.346	89.0	57.0	
15.0	0.0	0.0	1.0	0.0	0.346	89.0	56.2	
0.0	0.0	0.0	1.0	0.0	0.346	88.4	57.0	
1.0	0.0	0.0	1.0	0.0	0.25	89.0	57.0	
2.0	0.0	0.0	1.0	0.0	0.115	89.0	57.0	
3.0	0.0	0.0	1.0	0.0	0.038	89.0	57.2	
4.0	0.0	0.0	1.0	0.0	0.029	88.7	56.7	
5.0	0.0	0.0	1.0	0.0	-0.067	89.4	57.0	
6.0	0.0	0.0	1.0	0.0	-0.154	89.0	57.0	
7.0	0.0	0.0	1.0	0.0	-0.423	89.0	56.0	
8.0	0.0	0.0	1.0	0.0	-0.692	88.7	56.7	
9.0	0.0	0.0	1.0	0.0	-1.01	89.7	57.0	
10.0	0.0	0.0	1.0	0.0	-1.471	89.0	57.0	
11.0	0.0	0.0	1.0	0.0	-2.077	89.0	56.0	
12.0	0.0	0.0	1.0	0.0	-2.654	88.7	56.4	
13.0	0.0	0.0	1.0	0.0	-2.962	90.0	57.0	
14.0	0.0	0.0	1.0	0.0	-3.01	89.0	57.2	
15.0	0.0	0.0	1.0	0.0	-2.702	89.0	57.0	
0.0	0.0	0.0	1.0	0.0	-2.163	89.0	56.2	
1.0	0.0	0.0	1.0	0.0	-1.625	89.7	57.0	
2.0	0.0	0.0	1.0	0.0	-1.288	89.0	57.0	
3.0	0.0	0.0	1.0	0.0	-1.231	89.0	57.0	
4.0	0.0	0.0	1.0	0.0	-1.173	88.7	57.0	
5.0	0.0	0.0	1.0	0.0	-1.01	89.4	57.0	
6.0	0.0	0.0	1.0	0.0	-0.904	89.0	57.2	
7.0	0.0	0.0	1.0	0.0	-0.769	89.0	57.0	
8.0	0.0	0.0	1.0	0.0	-0.577	88.7	56.0	
9.0	0.0	0.0	1.0	0.0	-0.587	89.2	57.0	
10.0	0.0	0.0	1.0	0.0	-0.615	88.7	57.0	
11.0	0.0	0.0	1.0	0.0	-0.433	89.0	57.0	
12.0	0.0	0.0	1.0	0.0	-0.279	88.7	56.7	
13.0	0.0	0.0	1.0	0.0	-0.173	89.0	57.0	
14.0	0.0	0.0	1.0	0.0	-0.029	89.0	57.0	
15.0	0.0	0.0	1.0	0.0	0.067	89.0	56.7	
0.0	0.0	0.0	1.0	0.0	0.077	88.4	56.4	
1.0	0.0	0.0	1.0	0.0	0.077	89.0	57.0	
2.0	0.0	0.0	1.0	0.0	0.144	89.0	57.0	
3.0	0.0	0.0	1.0	0.0	0.269	89.0	56.7	
4.0	0.0	0.0	1.0	0.0	0.356	88.7	56.2	
5.0	0.0	0.0	1.0	0.0	0.375	89.0	57.0	
6.0	0.0	0.0	1.0	0.0	0.356	89.0	57.0	
7.0	0.0	0.0	1.0	0.0	0.337	89.0	57.0	
8.0	0.0	0.0	1.0	0.0	0.25	88.7	56.7	
9.0	0.0	0.0	1.0	0.0	0.26	89.0	57.0	
10.0	0.0	0.0	1.0	0.0	0.433	89.0	57.0	
11.0	0.0	0.0	1.0	0.0	0.038	89.0	57.0	
12.0	0.0	0.0	1.0	0.0	-0.067	88.7	56.2	
13.0	0.0	0.0	1.0	0.0	-0.433	89.0	57.0	
14.0	0.0	0.0	1.0	0.0	-0.596	89.0	57.0	
15.0	0.0	0.0	1.0	0.0	-0.962	89.0	57.2	
0.0	0.0	0.0	1.0	0.0	-1.529	88.2	55.7	
1.0	0.0	0.0	1.0	0.0	-2.115	89.0	57.0	
2.0	0.0	0.0	1.0	0.0	-2.26	89.0	57.0	
3.0	0.0	0.0	1.0	0.0	-2.481	88.7	57.2	
4.0	0.0	0.0	1.0	0.0	-2.394	87.7	55.0	
5.0	0.0	0.0	1.0	0.0	-2.144	88.7	57.0	
6.0	0.0	0.0	1.0	0.0	-1.808	89.0	57.0	
7.0	0.0	0.0	1.0	0.0	-1.356	89.0	57.2	
8.0	0.0	0.0	1.0	0.0	-0.942	87.7	54.7	
9.0	0.0	0.0	1.0	0.0	-0.769	88.7	57.2	
10.0	0.0	0.0	1.0	0.0	-0.952	89.0	57.0	
11.0	0.0	0.0	1.0	0.0	-1.01	89.0	57.2	
12.0	0.0	0.0	1.0	0.0	-0.971	87.7	54.7	
13.0	0.0	0.0	1.0	0.0	-1.096	89.0	58.0	
14.0	0.0	0.0	1.0	0.0	-1.375	89.0	57.0	
15.0	0.0	0.0	1.0	0.0	-1.423	89.0	57.2	
0.0	0.0	0.0	1.0	0.0	-1.471	88.0	55.2	
1.0	0.0	0.0	1.0	0.0	-1.298	89.0	58.4	
2.0	0.0	0.0	1.0	0.0	-1.087	89.0	57.0	
3.0	0.0	0.0	1.0	0.0	-1.058	89.0	57.4	
4.0	0.0	0.0	1.0	0.0	-1.163	88.4	55.4	
5.0	0.0	0.0	1.0	0.0	-0.663	88.7	58.4	
6.0	0.0	0.0	1.0	0.0	-0.202	89.0	57.0	
7.0	0.0	0.0	1.0	0.0	-0.01	89.0	57.4	
8.0	0.0	0.0	1.0	0.0	-0.163	88.7	56.2	
9.0	0.0	0.0	1.0	0.0	-0.231	88.7	58.4	
10.0	0.0	0.0	1.0	0.0	-0.231	89.0	57.0	
11.0	0.0	0.0	1.0	0.0	-0.433	89.0	57.0	
12.0	0.0	0.0	1.0	0.0	-0.442	88.7	56.0	
13.0	0.0	0.0	1.0	0.0	-0.673	88.7	58.4	
14.0	0.0	0.0	1.0	0.0	-0.5	89.0	57.0	
15.0	0.0	0.0	1.0	0.0	-0.356	89.0	57.0	
0.0	0.0	0.0	1.0	0.0	-0.433	89.0	56.0	
1.0	0.0	0.0	1.0	0.0	-0.51	89.0	58.2	
2.0	0.0	0.0	1.0	0.0	-0.577	88.7	57.0	
3.0	0.0	0.0	1.0	0.0	-0.673	89.0	57.2	
4.0	0.0	0.0	1.0	0.0	-0.702	89.0	56.0	
5.0	0.0	0.0	1.0	0.0	-0.721	88.7	58.0	
6.0	0.0	0.0	1.0	0.0	-0.731	89.0	57.0	
7.0	0.0	0.0	1.0	0.0	-0.663	89.0	57.0	
8.0	0.0	0.0	1.0	0.0	-0.846	88.7	56.7	
9.0	0.0	0.0	1.0	0.0	-0.721	88.7	58.0	
10.0	0.0	0.0	1.0	0.0	-0.5	89.0	57.0	
11.0	0.0	0.0	1.0	0.0	-0.5	88.7	57.0	
12.0	0.0	0.0	1.0	0.0	-0.548	88.7	56.7	
13.0	0.0	0.0	1.0	0.0	-0.577	88.7	57.7	
14.0	0.0	0.0	1.0	0.0	-0.673	89.0	57.0	
15.0	0.0	0.0	1.0	0.0	-0.721	89.0	57.0	
0.0	0.0	0.0	1.0	0.0	-0.817	88.7	56.2	
1.0	0.0	0.0	1.0	0.0	-0.798	88.7	57.4	
2.0	0.0	0.0	1.0	0.0	-0.721	89.0	57.0	
3.0	0.0	0.0	1.0	0.0	-0.712	89.0	57.2	
4.0	0.0	0.0	1.0	0.0	-0.625	89.0	57.0	
5.0	0.0	0.0	1.0	0.0	-0.587	88.7	57.4	
6.0	0.0	0.0	1.0	0.0	-0.577	89.0	57.0	
7.0	0.0	0.0	1.0	0.0	-0.615	89.0	57.0	
8.0	0.0	0.0	1.0	0.0	-0.644	89.0	56.0	
9.0	0.0	0.0	1.0	0.0	-0.644	88.7	57.0	
10.0	0.0	0.0	1.0	0.0	-0.606	88.7	57.0	
11.0	0.0	0.0	1.0	0.0	-0.596	89.0	57.2	
12.0	0.0	0.0	1.0	0.0	-0.615	89.0	57.0	
13.0	0.0	0.0	1.0	0.0	-0.596	88.7	57.0	
14.0	0.0	0.0	1.0	0.0	-0.644	89.0	57.0	
15.0	0.0	0.0	1.0	0.0	-0.606	89.0	57.0	
0.0	0.0	0.0	1.0	0.0	-0.567	88.7	56.0	
1.0	0.0	0.0	1.0	0.0	-0.5	88.7	56.7	
2.0	0.0	0.0	1.0	0.0	-0.452	89.2	56.7	
3.0	0.0	0.0	1.0	0.0	-0.462	89.0	57.0	
4.0	0.0	0.0	1.0	0.0	-0.5	89.0	56.0	
5.0	0.0	0.0	1.0	0.0	-0.5	88.7	56.2	
6.0	0.0	0.0	1.0	0.0	-0.404	89.7	57.0	
7.0	0.0	0.0	1.0	0.0	-0.308	89.0	57.0	
8.0	0.0	0.0	1.0	0.0	-0.327	89.0	56.2	
9.0	0.0	0.0	1.0	0.0	-0.394	88.7	56.2	
10.0	0.0	0.0	1.0	0.0	-0.404	90.0	57.0	
11.0	0.0	0.0	1.0	0.0	-0.365	88.7	57.0	
12.0	0.0	0.0	1.0	0.0	-0.356	89.0	56.7	
13.0	0.0	0.0	1.0	0.0	-0.337	88.7	56.4	
14.0	0.0	0.0	1.0	0.0	-0.26	89.7	57.0	
15.0	0.0	0.0	1.0	0.0	-0.308	89.0	57.0	
0.0	0.0	0.0	1.0	0.0	-0.308	89.0	57.2	
1.0	0.0	0.0	1.0	0.0	-0.308	88.7	56.4	
2.0	0.0	0.0	1.0	0.0	-0.308	89.7	56.7	
3.0	0.0	0.0	1.0	0.0	-0.298	89.0	57.0	
4.0	0.0	0.0	1.0	0.0	-0.346	89.0	57.0	
5.0	0.0	0.0	1.0	0.0	-0.356	88.4	56.7	
6.0	0.0	0.0	1.0	0.0	-0.413	89.4	57.0	
7.0	0.0	0.0	1.0	0.0	-0.423	88.7	57.0	
8.0	0.0	0.0	1.0	0.0	-0.308	89.0	57.0	
9.0	0.0	0.0	1.0	0.0	0.135	88.4	56.7	
10.0	0.0	0.0	1.0	0.0	-0.135	89.2	57.0	
11.0	0.0	0.0	1.0	0.0	-0.788	88.7	57.0	
12.0	0.0	0.0	1.0	0.0	-0.913	89.0	57.0	
13.0	0.0	0.0	1.0	0.0	-0.577	88.7	56.7	
14.0	0.0	0.0	1.0	0.0	-0.173	89.0	57.0	
15.0	0.0	0.0	1.0	0.0	-0.298	88.7	57.0	
0.0	0.0	0.0	1.0	0.0	-0.49	89.0	57.0	
1.0	0.0	0.0	1.0	0.0	-0.49	88.7	56.2	
2.0	0.0	0.0	1.0	0.0	-0.596	88.7	57.0	
3.0	0.0	0.0	1.0	0.0	-0.673	88.7	57.0	
4.0	0.0	0.0	1.0	0.0	-0.673	89.0	57.0	
5.0	0.0	0.0	1.0	0.0	-0.683	88.7	56.4	
6.0	0.0	0.0	1.0	0.0	-0.702	88.7	57.0	
7.0	0.0	0.0	1.0	0.0	-0.606	89.0	57.0	
8.0	0.0	0.0	1.0	0.0	-0.625	89.0	57.2	
9.0	0.0	0.0	1.0	0.0	-0.721	88.7	56.2	
10.0	0.0	0.0	1.0	0.0	-0.721	89.0	57.0	
11.0	0.0	0.0	1.0	0.0	-0.702	89.0	57.0	
12.0	0.0	0.0	1.0	0.0	-0.788	89.0	57.2	
13.0	0.0	0.0	1.0	0.0	-0.74	88.7	56.2	
14.0	0.0	0.0	1.0	0.0	-0.712	88.7	57.0	
15.0	0.0	0.0	1.0	0.0	-0.75	89.0	57.0	
0.0	0.0	0.0	1.0	0.0	-0.721	89.0	57.2	
1.0	0.0	0.0	1.0	0.0	-0.779	88.0	55.4	
2.0	0.0	0.0	1.0	0.0	-0.75	89.0	57.0	
3.0	0.0	0.0	1.0	0.0	-0.731	88.7	57.0	
4.0	0.0	0.0	1.0	0.0	-0.731	89.0	57.4	
5.0	0.0	0.0	1.0	0.0	-0.731	87.7	55.0	
6.0	0.0	0.0	1.0	0.0	-0.75	88.7	57.0	
7.0	0.0	0.0	1.0	0.0	-0.798	89.0	57.0	
8.0	0.0	0.0	1.0	0.0	-0.663	89.0	57.2	
9.0	0.0	0.0	1.0	0.0	-0.577	87.4	54.4	
10.0	0.0	0.0	1.0	0.0	-0.519	88.7	57.4	
11.0	0.0	0.0	1.0	0.0	-0.519	89.0	57.0	
12.0	0.0	0.0	1.0	0.0	-0.529	89.0	57.2	
13.0	0.0	0.0	1.0	0.0	-0.558	87.7	54.7	
14.0	0.0	0.0	1.0	0.0	-0.529	88.7	58.2	
15.0	0.0	0.0	1.0	0.0	-0.519	88.7	57.0	
0.0	0.0	0.0	1.0	0.0	-0.548	89.0	57.2	
1.0	0.0	0.0	1.0	0.0	-0.615	88.0	55.2	
2.0	0.0	0.0	1.0	0.0	-0.702	89.0	58.4	
3.0	0.0	0.0	1.0	0.0	-0.827	88.7	57.0	
4.0	0.0	0.0	1.0	0.0	-0.788	89.0	57.4	
5.0	0.0	0.0	1.0	0.0	-0.894	88.4	55.4	
6.0	0.0	0.0	1.0	0.0	-0.75	89.0	58.4	
7.0	0.0	0.0	1.0	0.0	-0.692	88.7	57.0	
8.0	0.0	0.0	1.0	0.0	-0.769	89.0	57.0	
9.0	0.0	0.0	1.0	0.0	-0.817	88.7	56.0	
10.0	0.0	0.0	1.0	0.0	-0.875	88.7	58.4	
11.0	0.0	0.0	1.0	0.0	-0.856	88.7	57.0	
12.0	0.0	0.0	1.0	0.0	-1.058	89.0	57.2	
13.0	0.0	0.0	1.0	0.0	-0.827	89.0	56.0	
14.0	0.0	0.0	1.0	0.0	0.087	88.7	58.4	
15.0	0.0	0.0	1.0	0.0	0.442	88.7	56.7	
0.0	0.0	0.0	1.0	0.0	0.558	89.0	57.0	
1.0	0.0	0.0	1.0	0.0	-0.067	88.7	56.0	
2.0	0.0	0.0	1.0	0.0	-0.288	88.7	58.2	
3.0	0.0	0.0	1.0	0.0	-0.125	88.7	57.0	
4.0	0.0	0.0	1.0	0.0	0.01	89.0	57.0	
5.0	0.0	0.0	1.0	0.0	-0.058	88.7	56.0	
6.0	0.0	0.0	1.0	0.0	-0.144	88.7	58.0	
7.0	0.0	0.0	1.0	0.0	-0.183	88.7	57.0	
8.0	0.0	0.0	1.0	0.0	-0.144	89.0	57.2	
9.0	0.0	0.0	1.0	0.0	-0.25	88.4	57.0	
10.0	0.0	0.0	1.0	0.0	-0.413	88.7	58.0	
11.0	0.0	0.0	1.0	0.0	-0.558	89.0	57.0	
12.0	0.0	0.0	1.0	0.0	-0.615	89.0	57.0	
13.0	0.0	0.0	1.0	0.0	-0.298	88.7	56.0	
14.0	0.0	0.0	1.0	0.0	-0.346	88.7	57.7	
15.0	0.0	0.0	1.0	0.0	-0.577	88.7	57.0	
0.0	0.0	0.0	1.0	0.0	-0.788	89.0	57.2	
1.0	0.0	0.0	1.0	0.0	-0.846	89.0	56.2	
2.0	0.0	0.0	1.0	0.0	-0.769	88.7	57.2	
3.0	0.0	0.0	1.0	0.0	-0.808	88.7	57.0	
4.0	0.0	0.0	1.0	0.0	-0.99	89.0	57.0	
5.0	0.0	0.0	1.0	0.0	-0.913	89.0	57.0	
6.0	0.0	0.0	1.0	0.0	-0.827	88.7	57.2	
7.0	0.0	0.0	1.0	0.0	-0.769	88.7	57.0	
8.0	0.0	0.0	1.0	0.0	-0.721	89.0	57.0	
9.0	0.0	0.0	1.0	0.0	-0.721	89.0	56.4	
10.0	0.0	0.0	1.0	0.0	-0.769	88.7	57.0	
11.0	0.0	0.0	1.0	0.0	-0.808	88.7	57.0	
12.0	0.0	0.0	1.0	0.0	-0.837	89.0	57.0	
13.0	0.0	0.0	1.0	0.0	-0.962	89.0	56.0	
14.0	0.0	0.0	1.0	0.0	-0.933	88.7	57.0	
15.0	0.0	0.0	1.0	0.0	-0.933	88.7	57.0	
0.0	0.0	0.0	1.0	0.0	-1.038	88.7	57.0	
1.0	0.0	0.0	1.0	0.0	-1.019	89.0	56.4	
2.0	0.0	0.0	1.0	0.0	-1.0	88.4	56.4	
3.0	0.0	0.0	1.0	0.0	-0.933	89.2	57.0	
4.0	0.0	0.0	1.0	0.0	-0.712	89.0	57.0	
5.0	0.0	0.0	1.0	0.0	-0.279	89.0	56.7	
6.0	0.0	0.0	1.0	0.0	-0.048	88.7	56.2	
7.0	0.0	0.0	1.0	0.0	-0.375	89.7	57.0	
8.0	0.0	0.0	1.0	0.0	-0.702	88.7	57.0	
9.0	0.0	0.0	1.0	0.0	-0.692	88.7	56.4	
10.0	0.0	0.0	1.0	0.0	-0.644	88.7	56.4	
11.0	0.0	0.0	1.0	0.0	-0.615	90.0	57.0	
12.0	0.0	0.0	1.0	0.0	-0.615	88.7	57.0	
13.0	0.0	0.0	1.0	0.0	-0.567	89.0	57.0	
14.0	0.0	0.0	1.0	0.0	-0.644	88.7	56.0	
15.0	0.0	0.0	1.0	0.0	-0.615	89.7	56.7	
0.0	0.0	0.0	1.0	0.0	-0.606	89.0	57.0	
1.0	0.0	0.0	1.0	0.0	-0.721	89.0	57.0	
2.0	0.0	0.0	1.0	0.0	-0.712	88.7	56.7	
3.0	0.0	0.0	1.0	0.0	-0.731	89.4	57.0	
4.0	0.0	0.0	1.0	0.0	-0.798	89.0	57.0	
5.0	0.0	0.0	1.0	0.0	-0.654	89.0	56.7	
6.0	0.0	0.0	1.0	0.0	-0.692	88.7	56.2	
7.0	0.0	0.0	1.0	0.0	-0.788	89.2	57.0	
8.0	0.0	0.0	1.0	0.0	-0.76	89.0	57.0	
9.0	0.0	0.0	1.0	0.0	-0.75	89.0	57.0	
10.0	0.0	0.0	1.0	0.0	-0.76	88.7	56.2	
11.0	0.0	0.0	1.0	0.0	-0.798	89.0	57.0	
12.0	0.0	0.0	1.0	0.0	-0.817	88.7	56.7	
13.0	0.0	0.0	1.0	0.0	-0.798	89.0	57.0	
14.0	0.0	0.0	1.0	0.0	-0.74	88.7	56.0	
15.0	0.0	0.0	1.0	0.0	-0.731	88.7	57.0	
0.0	0.0	0.0	1.0	0.0	-0.75	89.0	57.0	
1.0	0.0	0.0	1.0	0.0	-0.788	89.0	57.2	
2.0	0.0	0.0	1.0	0.0	-0.846	88.7	56.2	
3.0	0.0	0.0	1.0	0.0	-0.779	88.7	56.7	
4.0	0.0	0.0	1.0	0.0	-0.712	89.0	57.0	
5.0	0.0	0.0	1.0	0.0	-0.74	89.0	57.0	
6.0	0.0	0.0	1.0	0.0	-0.788	89.0	56.7	
7.0	0.0	0.0	1.0	0.0	-0.827	88.7	57.0	
8.0	0.0	0.0	1.0	0.0	-0.779	88.7	57.0	
9.0	0.0	0.0	1.0	0.0	-0.731	89.0	57.0	
10.0	0.0	0.0	1.0	0.0	-0.731	88.7	56.2	
11.0	0.0	0.0	1.0	0.0	-0.788	88.7	57.0	
12.0	0.0	0.0	1.0	0.0	-0.846	89.0	57.0	
13.0	0.0	0.0	1.0	0.0	-0.798	89.0	57.2	
14.0	0.0	0.0	1.0	0.0	-0.798	88.7	56.0	
15.0	0.0	0.0	1.0	0.0	-0.846	88.7	56.7	
0.0	0.0	0.0	1.0	0.0	-0.865	88.7	57.0	
1.0	0.0	0.0	1.0	0.0	-0.827	89.0	57.2	
2.0	0.0	0.0	1.0	0.0	-0.808	88.0	55.4	
3.0	0.0	0.0	1.0	0.0	-0.769	88.7	57.0	
4.0	0.0	0.0	1.0	0.0	-0.75	88.7	57.0	
5.0	0.0	0.0	1.0	0.0	-0.712	89.0	57.4	
6.0	0.0	0.0	1.0	0.0	-0.721	87.7	55.0	
7.0	0.0	0.0	1.0	0.0	-0.76	89.0	57.0	
8.0	0.0	0.0	1.0	0.0	-0.769	88.7	56.7	
9.0	0.0	0.0	1.0	0.0	-0.76	89.0	57.2	
10.0	0.0	0.0	1.0	0.0	-0.779	87.4	54.7	
11.0	0.0	0.0	1.0	0.0	-0.731	89.0	57.4	
12.0	0.0	0.0	1.0	0.0	-0.731	88.7	57.0	
13.0	0.0	0.0	1.0	0.0	-0.76	89.0	57.2	
14.0	0.0	0.0	1.0	0.0	-0.75	87.7	55.0	
15.0	0.0	0.0	1.0	0.0	-0.769	88.4	58.2	
0.0	0.0	0.0	1.0	0.0	-0.779	88.7	57.0	
1.0	0.0	0.0	1.0	0.0	-0.74	89.0	57.0	
2.0	0.0	0.0	1.0	0.0	-0.779	88.2	55.0	
3.0	0.0	0.0	1.0	0.0	-0.779	88.7	58.4	
4.0	0.0	0.0	1.0	0.0	-0.788	89.0	57.0	
5.0	0.0	0.0	1.0	0.0	-0.788	89.0	57.2	
6.0	0.0	0.0	1.0	0.0	-0.798	88.7	56.0	
7.0	0.0	0.0	1.0	0.0	-0.74	88.7	58.4	
8.0	0.0	0.0	1.0	0.0	-0.721	88.7	56.7	
9.0	0.0	0.0	1.0	0.0	-0.75	89.0	57.2	
10.0	0.0	0.0	1.0	0.0	-0.779	89.0	55.7	
11.0	0.0	0.0	1.0	0.0	-0.75	88.7	58.4	
12.0	0.0	0.0	1.0	0.0	-0.712	88.7	56.7	
13.0	0.0	0.0	1.0	0.0	-0.731	89.0	57.2	
14.0	0.0	0.0	1.0	0.0	-0.76	89.2	56.0	
15.0	0.0	0.0	1.0	0.0	-0.76	89.0	58.2	
0.0	0.0	0.0	1.0	0.0	-0.683	88.7	57.0	
1.0	0.0	0.0	1.0	0.0	-0.702	89.0	57.0	
2.0	0.0	0.0	1.0	0.0	-0.731	88.7	55.7	
3.0	0.0	0.0	1.0	0.0	-0.76	88.7	58.2	
4.0	0.0	0.0	1.0	0.0	-0.731	89.0	57.0	
5.0	0.0	0.0	1.0	0.0	-0.683	89.0	57.0	
6.0	0.0	0.0	1.0	0.0	-0.692	88.7	56.2	
7.0	0.0	0.0	1.0	0.0	-0.712	88.7	58.0	
8.0	0.0	0.0	1.0	0.0	-0.721	89.0	57.0	
9.0	0.0	0.0	1.0	0.0	-0.692	89.0	57.0	
10.0	0.0	0.0	1.0	0.0	-0.683	89.0	55.7	
11.0	0.0	0.0	1.0	0.0	-0.712	88.7	57.7	
12.0	0.0	0.0	1.0	0.0	-0.702	88.7	56.7	
13.0	0.0	0.0	1.0	0.0	-0.702	89.0	57.0	
14.0	0.0	0.0	1.0	0.0	-0.74	88.7	56.0	
15.0	0.0	0.0	1.0	0.0	-0.692	88.7	57.7	
0.0	0.0	0.0	1.0	0.0	-0.673	88.7	57.0	
1.0	0.0	0.0	1.0	0.0	-0.673	89.0	57.4	
2.0	0.0	0.0	1.0	0.0	-0.692	88.7	56.2	
3.0	0.0	0.0	1.0	0.0	-0.731	88.7	57.2	
4.0	0.0	0.0	1.0	0.0	-0.712	88.7	56.7	
5.0	0.0	0.0	1.0	0.0	-0.654	89.0	57.0	
6.0	0.0	0.0	1.0	0.0	-0.654	89.0	56.4	
7.0	0.0	0.0	1.0	0.0	-0.683	88.7	57.2	
8.0	0.0	0.0	1.0	0.0	-0.712	89.0	57.0	
9.0	0.0	0.0	1.0	0.0	-0.692	89.0	57.0	
10.0	0.0	0.0	1.0	0.0	-0.683	89.0	57.0	
11.0	0.0	0.0	1.0	0.0	-0.654	88.4	57.0	
12.0	0.0	0.0	1.0	0.0	-0.673	89.0	56.7	
13.0	0.0	0.0	1.0	0.0	-0.712	89.0	57.2	
14.0	0.0	0.0	1.0	0.0	-0.702	89.0	56.0	
15.0	0.0	0.0	1.0	0.0	-0.663	88.7	57.0	
0.0	0.0	0.0	1.0	0.0	-0.654	89.0	57.0	
1.0	0.0	0.0	1.0	0.0	-0.673	89.0	57.0	
2.0	0.0	0.0	1.0	0.0	-0.683	89.0	56.0	
3.0	0.0	0.0	1.0	0.0	-0.673	88.7	56.7	
4.0	0.0	0.0	1.0	0.0	-0.673	89.4	56.7	
5.0	0.0	0.0	1.0	0.0	-0.635	89.0	57.0	
6.0	0.0	0.0	1.0	0.0	-0.663	89.0	57.0	
7.0	0.0	0.0	1.0	0.0	-0.673	88.7	56.2	
8.0	0.0	0.0	1.0	0.0	-0.673	89.7	57.0	
9.0	0.0	0.0	1.0	0.0	-0.673	89.0	57.0	
10.0	0.0	0.0	1.0	0.0	-0.692	89.0	57.2	
11.0	0.0	0.0	1.0	0.0	-0.692	88.7	56.4	
12.0	0.0	0.0	1.0	0.0	-0.683	90.0	56.7	
13.0	0.0	0.0	1.0	0.0	-0.663	89.0	57.0	
14.0	0.0	0.0	1.0	0.0	-0.673	89.0	57.0	
15.0	0.0	0.0	1.0	0.0	-0.683	88.7	56.2	
0.0	0.0	0.0	1.0	0.0	-0.702	89.7	56.7	
1.0	0.0	0.0	1.0	0.0	-0.692	89.0	57.0	
2.0	0.0	0.0	1.0	0.0	-0.721	89.0	57.2	
3.0	0.0	0.0	1.0	0.0	-0.712	88.7	56.0	
4.0	0.0	0.0	1.0	0.0	-0.683	89.4	56.7	
5.0	0.0	0.0	1.0	0.0	-0.654	89.0	57.0	
6.0	0.0	0.0	1.0	0.0	-0.663	89.0	57.0	
7.0	0.0	0.0	1.0	0.0	-0.673	88.7	56.2	
8.0	0.0	0.0	1.0	0.0	-0.683	89.2	56.7	
9.0	0.0	0.0	1.0	0.0	-0.673	89.0	57.0	
10.0	0.0	0.0	1.0	0.0	-0.683	89.0	57.0	
11.0	0.0	0.0	1.0	0.0	-0.673	88.7	56.7	
12.0	0.0	0.0	1.0	0.0	-0.683	89.0	57.0	
13.0	0.0	0.0	1.0	0.0	-0.692	89.0	57.0	
14.0	0.0	0.0	1.0	0.0	-0.683	89.0	57.0	
15.0	0.0	0.0	1.0	0.0	-0.673	88.7	56.7	
0.0	0.0	0.0	1.0	0.0	-0.683	89.0	57.0	
1.0	0.0	0.0	1.0	0.0	-0.663	88.7	56.7	
2.0	0.0	0.0	1.0	0.0	-0.654	89.0	56.4	
3.0	0.0	0.0	1.0	0.0	-0.673	88.7	56.4	
4.0	0.0	0.0	1.0	0.0	-0.692	89.0	57.0	
5.0	0.0	0.0	1.0	0.0	-0.702	89.0	57.0	
6.0	0.0	0.0	1.0	0.0	-0.702	89.2	57.2	
7.0	0.0	0.0	1.0	0.0	-0.702	88.7	56.2	
8.0	0.0	0.0	1.0	0.0	-0.702	89.0	57.0	
9.0	0.0	0.0	1.0	0.0	-0.702	89.0	57.0	
10.0	0.0	0.0	1.0	0.0	-0.673	89.0	57.0	
11.0	0.0	0.0	1.0	0.0	-0.683	89.0	56.4	
12.0	0.0	0.0	1.0	0.0	-0.683	88.7	56.7	
13.0	0.0	0.0	1.0	0.0	-0.692	89.0	57.0	
14.0	0.0	0.0	1.0	0.0	-0.692	89.0	57.2	
15.0	0.0	0.0	1.0	0.0	-0.683	88.4	55.7	
0.0	0.0	0.0	1.0	0.0	-0.683	88.7	56.7	
1.0	0.0	0.0	1.0	0.0	-0.683	89.0	57.0	
2.0	0.0	0.0	1.0	0.0	-0.702	89.0	57.0	
3.0	0.0	0.0	1.0	0.0	-0.683	88.0	55.2	
4.0	0.0	0.0	1.0	0.0	-0.702	89.0	57.0	
5.0	0.0	0.0	1.0	0.0	-0.692	89.0	57.0	
6.0	0.0	0.0	1.0	0.0	-0.692	89.0	57.2	
7.0	0.0	0.0	1.0	0.0	-0.692	87.4	54.7	
8.0	0.0	0.0	1.0	0.0	-0.692	89.0	57.0	
9.0	0.0	0.0	1.0	0.0	-0.692	89.0	57.0	
10.0	0.0	0.0	1.0	0.0	-0.692	89.2	57.2	
11.0	0.0	0.0	1.0	0.0	-0.692	87.7	55.0	
12.0	0.0	0.0	1.0	0.0	-0.692	88.7	57.7	
13.0	0.0	0.0	1.0	0.0	-0.673	89.0	57.0	
14.0	0.0	0.0	1.0	0.0	-0.673	89.0	57.0	
15.0	0.0	0.0	1.0	0.0	-0.683	88.0	55.2	
0.0	0.0	0.0	1.0	0.0	-0.673	88.7	58.2	
1.0	0.0	0.0	1.0	0.0	-0.692	89.0	56.7	
2.0	0.0	0.0	1.0	0.0	-0.712	89.0	57.2	
3.0	0.0	0.0	1.0	0.0	-0.702	88.4	55.2	
4.0	0.0	0.0	1.0	0.0	-0.702	88.7	58.4	
5.0	0.0	0.0	1.0	0.0	-0.683	89.0	57.0	
6.0	0.0	0.0	1.0	0.0	-0.712	89.0	57.2	
7.0	0.0	0.0	1.0	0.0	-0.692	88.7	55.4	
8.0	0.0	0.0	1.0	0.0	-0.683	88.7	58.4	
9.0	0.0	0.0	1.0	0.0	-0.663	89.0	57.0	
10.0	0.0	0.0	1.0	0.0	-0.673	89.0	57.2	
11.0	0.0	0.0	1.0	0.0	-0.692	89.0	56.0	
12.0	0.0	0.0	1.0	0.0	-0.702	89.0	58.4	
13.0	0.0	0.0	1.0	0.0	-0.692	89.0	57.0	
14.0	0.0	0.0	1.0	0.0	-0.702	89.0	57.4	
15.0	0.0	0.0	1.0	0.0	-0.712	89.0	56.0	
0.0	0.0	0.0	1.0	0.0	-0.712	88.7	58.2	
1.0	0.0	0.0	1.0	0.0	-0.692	89.0	57.0	
2.0	0.0	0.0	1.0	0.0	-0.731	89.0	57.0	
3.0	0.0	0.0	1.0	0.0	-0.712	89.0	55.2	
4.0	0.0	0.0	1.0	0.0	-0.721	89.0	56.2	
5.0	0.0	0.0	1.0	0.0	-0.702	89.4	54.2	
6.0	0.0	0.0	1.0	0.0	-0.702	89.7	54.2	
7.0	0.0	0.0	1.0	0.0	-0.702	89.7	52.7	
8.0	0.0	0.0	1.0	0.0	-0.712	89.4	54.4	
9.0	0.0	0.0	1.0	0.0	-0.712	90.0	53.0	
10.0	0.0	0.0	1.0	0.0	-0.683	90.0	53.0	
11.0	0.0	0.0	1.0	0.0	-0.683	89.7	53.0	
12.0	0.0	0.0	1.0	0.0	-0.702	89.7	53.7	
13.0	0.0	0.0	1.0	0.0	-0.731	90.0	53.0	
14.0	0.0	0.0	1.0	0.0	-0.731	90.0	53.2	
15.0	0.0	0.0	1.0	0.0	-0.712	89.7	52.0	
0.0	0.0	0.0	1.0	0.0	-0.702	89.7	53.4	
1.0	0.0	0.0	1.0	0.0	-0.692	90.0	53.0	
2.0	0.0	0.0	1.0	0.0	-0.692	90.0	53.2	
3.0	0.0	0.0	1.0	0.0	-0.702	89.7	52.7	
4.0	0.0	0.0	1.0	0.0	-0.712	89.4	53.2	
5.0	0.0	0.0	1.0	0.0	-0.731	90.0	53.0	
6.0	0.0	0.0	1.0	0.0	-0.798	90.0	53.0	
7.0	0.0	0.0	1.0	0.0	-0.788	89.7	53.2	
8.0	0.0	0.0	1.0	0.0	-0.74	89.7	53.0	
9.0	0.0	0.0	1.0	0.0	-0.769	90.0	53.0	
10.0	0.0	0.0	1.0	0.0	-0.76	90.0	53.2	
11.0	0.0	0.0	1.0	0.0	-0.654	89.7	53.0	
12.0	0.0	0.0	1.0	0.0	-0.644	89.7	52.4	
13.0	0.0	0.0	1.0	0.0	-0.692	90.0	52.7	
14.0	0.0	0.0	1.0	0.0	-0.721	90.0	53.0	
15.0	0.0	0.0	1.0	0.0	-0.788	89.7	52.2	
0.0	0.0	0.0	1.0	0.0	-0.808	89.7	52.7	
1.0	0.0	0.0	1.0	0.0	-0.731	90.2	53.0	
2.0	0.0	0.0	1.0	0.0	-0.74	90.0	53.2	
3.0	0.0	0.0	1.0	0.0	-0.721	90.2	52.0	
4.0	0.0	0.0	1.0	0.0	-0.779	90.0	52.7	
5.0	0.0	0.0	1.0	0.0	-0.779	90.7	53.0	
6.0	0.0	0.0	1.0	0.0	-0.74	90.0	53.2	
7.0	0.0	0.0	1.0	0.0	-0.702	90.2	53.2	
8.0	0.0	0.0	1.0	0.0	-0.702	89.7	52.0	
9.0	0.0	0.0	1.0	0.0	-0.74	91.0	53.0	
10.0	0.0	0.0	1.0	0.0	-0.769	90.0	53.0	
11.0	0.0	0.0	1.0	0.0	-0.75	90.2	53.2	
12.0	0.0	0.0	1.0	0.0	-0.75	89.7	52.0	
13.0	0.0	0.0	1.0	0.0	-0.788	91.0	53.0	
14.0	0.0	0.0	1.0	0.0	-0.75	90.0	53.0	
15.0	0.0	0.0	1.0	0.0	-0.74	90.0	52.4	
0.0	0.0	0.0	1.0	0.0	-0.74	89.7	52.4	
1.0	0.0	0.0	1.0	0.0	-0.74	90.7	53.0	
2.0	0.0	0.0	1.0	0.0	-0.798	90.0	53.0	
3.0	0.0	0.0	1.0	0.0	-0.798	90.0	53.0	
4.0	0.0	0.0	1.0	0.0	-0.808	90.0	52.4	
5.0	0.0	0.0	1.0	0.0	-0.76	90.4	53.0	
6.0	0.0	0.0	1.0	0.0	-0.721	90.0	53.0	
7.0	0.0	0.0	1.0	0.0	-0.76	90.0	53.2	
8.0	0.0	0.0	1.0	0.0	-0.74	89.7	52.0	
9.0	0.0	0.0	1.0	0.0	-0.76	90.2	53.0	
10.0	0.0	0.0	1.0	0.0	-0.74	90.0	53.0	
11.0	0.0	0.0	1.0	0.0	-0.74	90.0	53.0	
12.0	0.0	0.0	1.0	0.0	-0.731	90.0	52.7	
13.0	0.0	0.0	1.0	0.0	-0.76	90.2	53.0	
14.0	0.0	0.0	1.0	0.0	-0.808	90.0	53.0	
15.0	0.0	0.0	1.0	0.0	-0.779	90.2	53.4	
0.0	0.0	0.0	1.0	0.0	-0.76	89.7	52.4	
1.0	0.0	0.0	1.0	0.0	-0.779	90.0	53.0	
2.0	0.0	0.0	1.0	0.0	-0.817	90.0	53.0	
3.0	0.0	0.0	1.0	0.0	-0.865	90.0	53.2	
4.0	0.0	0.0	1.0	0.0	-0.856	89.4	52.4	
5.0	0.0	0.0	1.0	0.0	-0.856	90.0	53.0	
6.0	0.0	0.0	1.0	0.0	-0.827	90.0	53.0	
7.0	0.0	0.0	1.0	0.0	-0.817	90.2	53.2	
8.0	0.0	0.0	1.0	0.0	-0.885	89.7	52.0	
9.0	0.0	0.0	1.0	0.0	-0.923	90.0	53.0	
10.0	0.0	0.0	1.0	0.0	-0.962	90.0	53.0	
11.0	0.0	0.0	1.0	0.0	-1.038	90.2	53.4	
12.0	0.0	0.0	1.0	0.0	-1.173	90.0	51.0	
13.0	0.0	0.0	1.0	0.0	-1.019	89.7	53.0	
14.0	0.0	0.0	1.0	0.0	-0.904	90.0	53.0	
15.0	0.0	0.0	1.0	0.0	-0.904	90.2	53.4	
0.0	0.0	0.0	1.0	0.0	-0.846	89.7	50.7	
1.0	0.0	0.0	1.0	0.0	-0.596	90.0	53.0	
2.0	0.0	0.0	1.0	0.0	-0.298	90.0	53.0	
3.0	0.0	0.0	1.0	0.0	-0.038	90.2	53.2	
4.0	0.0	0.0	1.0	0.0	0.779	89.0	50.7	
5.0	0.0	0.0	1.0	0.0	1.298	89.7	53.0	
6.0	0.0	0.0	1.0	0.0	1.683	90.0	53.0	
7.0	0.0	0.0	1.0	0.0	0.923	90.0	53.2	
8.0	0.0	0.0	1.0	0.0	0.192	88.7	50.7	
9.0	0.0	0.0	1.0	0.0	0.644	89.7	53.2	
10.0	0.0	0.0	1.0	0.0	-0.183	90.0	53.0	
11.0	0.0	0.0	1.0	0.0	-0.471	90.0	53.2	
12.0	0.0	0.0	1.0	0.0	-0.635	88.7	51.4	
13.0	0.0	0.0	1.0	0.0	-1.144	90.0	54.0	
14.0	0.0	0.0	1.0	0.0	-1.865	90.0	53.0	
15.0	0.0	0.0	1.0	0.0	-2.202	90.2	53.2	
0.0	0.0	0.0	1.0	0.0	-3.038	89.0	51.4	
1.0	0.0	0.0	1.0	0.0	-3.769	89.7	54.4	
2.0	0.0	0.0	1.0	0.0	-4.452	90.0	53.0	
3.0	0.0	0.0	1.0	0.0	-4.692	90.2	53.2	
4.0	0.0	0.0	1.0	0.0	-4.087	89.4	51.7	
5.0	0.0	0.0	1.0	0.0	-2.192	89.7	54.7	
6.0	0.0	0.0	1.0	0.0	-0.933	90.0	53.0	
7.0	0.0	0.0	1.0	0.0	-0.135	90.0	53.2	
8.0	0.0	0.0	1.0	0.0	-0.529	89.7	52.2	
9.0	0.0	0.0	1.0	0.0	0.058	90.0	54.7	
10.0	0.0	0.0	1.0	0.0	0.846	90.0	53.0	
11.0	0.0	0.0	1.0	0.0	1.663	90.2	53.4	
12.0	0.0	0.0	1.0	0.0	2.404	89.4	52.0	
13.0	0.0	0.0	1.0	0.0	2.683	89.7	54.7	
14.0	0.0	0.0	1.0	0.0	1.606	90.0	53.0	
15.0	0.0	0.0	1.0	0.0	0.654	90.0	53.0	
0.0	0.0	0.0	1.0	0.0	0.106	90.2	52.0	
1.0	0.0	0.0	1.0	0.0	-0.327	90.0	54.4	
2.0	0.0	0.0	1.0	0.0	-0.567	90.0	53.0	
3.0	0.0	0.0	1.0	0.0	-0.885	90.0	53.2	
4.0	0.0	0.0	1.0	0.0	-1.615	90.2	52.0	
5.0	0.0	0.0	1.0	0.0	-2.404	89.7	54.2	
6.0	0.0	0.0	1.0	0.0	-3.106	90.0	53.0	
7.0	0.0	0.0	1.0	0.0	-4.558	90.0	53.2	
8.0	0.0	0.0	1.0	0.0	-4.721	90.0	52.0	
9.0	0.0	0.0	1.0	0.0	-4.721	89.7	54.0	
10.0	0.0	0.0	1.0	0.0	-3.702	90.0	53.0	
11.0	0.0	0.0	1.0	0.0	-1.087	90.0	53.0	
12.0	0.0	0.0	1.0	0.0	0.106	89.7	52.0	
13.0	0.0	0.0	1.0	0.0	0.423	89.7	53.7	
14.0	0.0	0.0	1.0	0.0	0.962	90.0	53.0	
15.0	0.0	0.0	1.0	0.0	2.327	90.0	53.2	
0.0	0.0	0.0	1.0	0.0	3.413	89.4	52.7	
1.0	0.0	0.0	1.0	0.0	3.423	89.2	53.2	
2.0	0.0	0.0	1.0	0.0	3.423	89.7	53.0	
3.0	0.0	0.0	1.0	0.0	2.558	90.0	53.4	
4.0	0.0	0.0	1.0	0.0	1.096	89.4	52.0	
5.0	0.0	0.0	1.0	0.0	0.019	89.7	53.4	
6.0	0.0	0.0	1.0	0.0	-0.471	90.0	53.0	
7.0	0.0	0.0	1.0	0.0	-0.5	90.0	53.0	
8.0	0.0	0.0	1.0	0.0	-0.856	90.0	52.4	
9.0	0.0	0.0	1.0	0.0	-2.346	89.7	53.0	
10.0	0.0	0.0	1.0	0.0	-4.048	90.0	53.0	
11.0	0.0	0.0	1.0	0.0	-4.692	90.0	53.2	
12.0	0.0	0.0	1.0	0.0	-4.731	90.0	52.0	
13.0	0.0	0.0	1.0	0.0	-4.692	89.7	53.0	
14.0	0.0	0.0	1.0	0.0	-3.404	90.0	53.0	
15.0	0.0	0.0	1.0	0.0	-1.827	90.0	53.0	
0.0	0.0	0.0	1.0	0.0	-1.115	90.2	52.7	
1.0	0.0	0.0	1.0	0.0	-0.635	89.7	52.7	
2.0	0.0	0.0	1.0	0.0	-0.404	90.2	53.0	
3.0	0.0	0.0	1.0	0.0	0.125	90.0	53.0	
4.0	0.0	0.0	1.0	0.0	1.087	90.0	53.0	
5.0	0.0	0.0	1.0	0.0	2.279	89.4	52.4	
6.0	0.0	0.0	1.0	0.0	3.423	90.7	53.0	
7.0	0.0	0.0	1.0	0.0	3.413	90.0	53.2	
8.0	0.0	0.0	1.0	0.0	3.423	90.0	52.4	
9.0	0.0	0.0	1.0	0.0	3.183	89.2	52.7	
10.0	0.0	0.0	1.0	0.0	1.346	91.0	53.0	
11.0	0.0	0.0	1.0	0.0	0.606	89.7	53.2	
12.0	0.0	0.0	1.0	0.0	0.038	90.2	52.2	
13.0	0.0	0.0	1.0	0.0	-0.375	89.7	52.7	
14.0	0.0	0.0	1.0	0.0	-0.837	91.0	53.0	
15.0	0.0	0.0	1.0	0.0	-1.779	90.0	53.2	
0.0	0.0	0.0	1.0	0.0	-2.24	90.2	53.0	
1.0	0.0	0.0	1.0	0.0	-4.442	89.4	52.4	
2.0	0.0	0.0	1.0	0.0	-4.721	90.7	53.0	
3.0	0.0	0.0	1.0	0.0	-4.663	90.0	53.0	
4.0	0.0	0.0	1.0	0.0	-3.058	90.0	53.2	
5.0	0.0	0.0	1.0	0.0	-2.644	89.7	52.0	
6.0	0.0	0.0	1.0	0.0	-2.106	90.4	53.0	
7.0	0.0	0.0	1.0	0.0	-1.5	90.0	53.0	
8.0	0.0	0.0	1.0	0.0	-0.74	90.2	53.0	
9.0	0.0	0.0	1.0	0.0	-0.058	89.7	52.0	
10.0	0.0	0.0	1.0	0.0	0.163	90.2	53.0	
11.0	0.0	0.0	1.0	0.0	0.769	90.0	53.0	
12.0	0.0	0.0	1.0	0.0	2.106	90.0	53.2	
13.0	0.0	0.0	1.0	0.0	3.423	89.7	52.0	
14.0	0.0	0.0	1.0	0.0	3.413	90.0	53.0	
15.0	0.0	0.0	1.0	0.0	3.423	90.0	53.0	
0.0	0.0	0.0	1.0	0.0	3.317	90.0	53.0	
1.0	0.0	0.0	1.0	0.0	2.548	89.4	52.7	
2.0	0.0	0.0	1.0	0.0	1.298	90.0	53.0	
3.0	0.0	0.0	1.0	0.0	0.337	90.0	53.0	
4.0	0.0	0.0	1.0	0.0	-0.24	90.2	53.2	
5.0	0.0	0.0	1.0	0.0	-1.067	89.7	53.0	
6.0	0.0	0.0	1.0	0.0	-0.923	89.7	53.0	
7.0	0.0	0.0	1.0	0.0	-2.442	90.0	53.0	
8.0	0.0	0.0	1.0	0.0	-4.615	90.0	53.2	
9.0	0.0	0.0	1.0	0.0	-4.721	89.7	51.7	
10.0	0.0	0.0	1.0	0.0	-4.731	89.7	53.0	
11.0	0.0	0.0	1.0	0.0	-4.24	90.0	53.0	
12.0	0.0	0.0	1.0	0.0	-3.365	90.0	53.4	
13.0	0.0	0.0	1.0	0.0	-3.0	89.7	51.0	
14.0	0.0	0.0	1.0	0.0	-1.971	90.0	53.0	
15.0	0.0	0.0	1.0	0.0	-0.394	90.0	53.0	
0.0	0.0	0.0	1.0	0.0	-0.413	90.2	53.2	
1.0	0.0	0.0	1.0	0.0	0.394	89.2	51.0	
2.0	0.0	0.0	1.0	0.0	1.144	90.0	53.0	
3.0	0.0	0.0	1.0	0.0	1.663	90.0	53.0	
4.0	0.0	0.0	1.0	0.0	2.5	90.0	53.2	
5.0	0.0	0.0	1.0	0.0	3.231	88.7	51.0	
6.0	0.0	0.0	1.0	0.0	3.413	89.7	53.0	
7.0	0.0	0.0	1.0	0.0	3.423	89.7	53.0	
8.0	0.0	0.0	1.0	0.0	3.413	90.0	53.2	
9.0	0.0	0.0	1.0	0.0	3.135	88.2	51.0	
10.0	0.0	0.0	1.0	0.0	2.288	90.0	53.4	
11.0	0.0	0.0	1.0	0.0	1.279	90.0	53.0	
12.0	0.0	0.0	1.0	0.0	0.163	90.2	53.2	
13.0	0.0	0.0	1.0	0.0	-0.5	88.7	51.0	
14.0	0.0	0.0	1.0	0.0	-1.048	90.0	54.2	
15.0	0.0	0.0	1.0	0.0	-2.087	90.0	53.0	
0.0	0.0	0.0	1.0	0.0	-4.538	90.2	53.2	
1.0	0.0	0.0	1.0	0.0	-4.721	89.0	51.7	
2.0	0.0	0.0	1.0	0.0	-4.721	89.7	54.7	
3.0	0.0	0.0	1.0	0.0	-3.26	90.0	53.0	
4.0	0.0	0.0	1.0	0.0	-3.125	90.0	53.2	
5.0	0.0	0.0	1.0	0.0	-2.154	89.4	52.0	
6.0	0.0	0.0	1.0	0.0	-1.394	90.0	54.7	
7.0	0.0	0.0	1.0	0.0	-1.096	90.0	53.0	
8.0	0.0	0.0	1.0	0.0	-0.01	90.2	53.2	
9.0	0.0	0.0	1.0	0.0	1.01	89.4	52.0	
10.0	0.0	0.0	1.0	0.0	1.365	89.7	54.7	
11.0	0.0	0.0	1.0	0.0	1.394	90.0	53.0	
12.0	0.0	0.0	1.0	0.0	2.279	90.0	53.0	
13.0	0.0	0.0	1.0	0.0	3.375	89.4	52.0	
14.0	0.0	0.0	1.0	0.0	3.413	89.4	54.4	
15.0	0.0	0.0	1.0	0.0	3.413	90.0	53.0	
0.0	0.0	0.0	1.0	0.0	3.423	90.0	53.2	
1.0	0.0	0.0	1.0	0.0	2.615	89.7	52.7	
2.0	0.0	0.0	1.0	0.0	2.644	89.7	54.4	
3.0	0.0	0.0	1.0	0.0	1.663	90.0	53.0	
4.0	0.0	0.0	1.0	0.0	0.26	90.0	53.2	
5.0	0.0	0.0	1.0	0.0	-0.394	90.0	52.4	
6.0	0.0	0.0	1.0	0.0	-0.692	90.0	54.2	
7.0	0.0	0.0	1.0	0.0	-1.692	90.0	53.0	
8.0	0.0	0.0	1.0	0.0	-3.74	90.0	53.2	
9.0	0.0	0.0	1.0	0.0	-4.702	90.2	52.2	
10.0	0.0	0.0	1.0	0.0	-4.567	89.4	54.0	
11.0	0.0	0.0	1.0	0.0	-3.913	90.0	53.0	
12.0	0.0	0.0	1.0	0.0	-2.817	90.0	53.2	
13.0	0.0	0.0	1.0	0.0	-2.115	89.7	52.0	
14.0	0.0	0.0	1.0	0.0	-1.923	89.7	53.7	
15.0	0.0	0.0	1.0	0.0	-1.029	90.0	53.0	
0.0	0.0	0.0	1.0	0.0	-0.173	90.0	53.2	
1.0	0.0	0.0	1.0	0.0	0.096	89.7	52.2	
2.0	0.0	0.0	1.0	0.0	-0.019	89.7	53.4	
3.0	0.0	0.0	1.0	0.0	0.913	89.7	53.0	
4.0	0.0	0.0	1.0	0.0	0.106	90.0	53.2	
5.0	0.0	0.0	1.0	0.0	1.154	89.4	53.0	
6.0	0.0	0.0	1.0	0.0	1.75	89.4	53.2	
7.0	0.0	0.0	1.0	0.0	2.106	90.0	53.0	
8.0	0.0	0.0	1.0	0.0	3.067	90.0	53.2	
9.0	0.0	0.0	1.0	0.0	2.885	89.2	53.0	
10.0	0.0	0.0	1.0	0.0	3.413	89.2	52.7	
11.0	0.0	0.0	1.0	0.0	3.048	90.0	53.0	
12.0	0.0	0.0	1.0	0.0	2.163	90.0	53.0	
13.0	0.0	0.0	1.0	0.0	1.644	90.0	53.0	
14.0	0.0	0.0	1.0	0.0	1.125	89.4	53.0	
15.0	0.0	0.0	1.0	0.0	0.375	90.0	53.0	
0.0	0.0	0.0	1.0	0.0	-0.173	90.0	53.0	
1.0	0.0	0.0	1.0	0.0	-0.827	90.0	53.0	
2.0	0.0	0.0	1.0	0.0	-1.115	89.7	52.2	
3.0	0.0	0.0	1.0	0.0	-2.212	90.4	53.0	
4.0	0.0	0.0	1.0	0.0	-3.856	90.0	53.2	
5.0	0.0	0.0	1.0	0.0	-3.913	90.0	52.7	
6.0	0.0	0.0	1.0	0.0	-3.038	89.7	52.2	
7.0	0.0	0.0	1.0	0.0	-2.26	90.7	53.0	
8.0	0.0	0.0	1.0	0.0	-2.135	90.0	53.0	
9.0	0.0	0.0	1.0	0.0	-1.644	90.0	53.2	
10.0	0.0	0.0	1.0	0.0	-0.798	89.7	52.0	
11.0	0.0	0.0	1.0	0.0	-0.404	91.0	53.0	
12.0	0.0	0.0	1.0	0.0	-0.269	90.0	53.0	
13.0	0.0	0.0	1.0	0.0	0.087	90.0	52.7	
14.0	0.0	0.0	1.0	0.0	0.452	89.7	52.2	
15.0	0.0	0.0	1.0	0.0	0.683	91.0	53.0	
0.0	0.0	0.0	1.0	0.0	1.048	90.0	53.2	
1.0	0.0	0.0	1.0	0.0	1.346	89.7	53.2	
2.0	0.0	0.0	1.0	0.0	1.375	89.4	52.0	
3.0	0.0	0.0	1.0	0.0	1.423	90.7	53.0	
4.0	0.0	0.0	1.0	0.0	1.548	90.0	53.0	
5.0	0.0	0.0	1.0	0.0	1.702	89.7	53.2	
6.0	0.0	0.0	1.0	0.0	1.587	89.7	52.7	
7.0	0.0	0.0	1.0	0.0	1.625	90.2	53.0	
8.0	0.0	0.0	1.0	0.0	1.663	90.0	53.0	
9.0	0.0	0.0	1.0	0.0	1.471	90.0	53.0	
10.0	0.0	0.0	1.0	0.0	1.163	89.7	52.2	
11.0	0.0	0.0	1.0	0.0	0.49	90.2	53.0	
12.0	0.0	0.0	1.0	0.0	0.442	90.0	53.2	
13.0	0.0	0.0	1.0	0.0	0.221	90.0	53.2	
14.0	0.0	0.0	1.0	0.0	-0.433	90.0	52.7	
15.0	0.0	0.0	1.0	0.0	-1.538	90.0	53.0	
0.0	0.0	0.0	1.0	0.0	-3.144	90.0	53.2	
1.0	0.0	0.0	1.0	0.0	-3.923	90.2	53.2	
2.0	0.0	0.0	1.0	0.0	-3.0	89.7	52.4	
3.0	0.0	0.0	1.0	0.0	-1.0	90.0	53.0	
4.0	0.0	0.0	1.0	0.0	-1.346	90.0	53.0	
5.0	0.0	0.0	1.0	0.0	-1.404	90.2	53.2	
6.0	0.0	0.0	1.0	0.0	-1.125	89.7	52.2	
7.0	0.0	0.0	1.0	0.0	-0.269	90.0	53.0	
8.0	0.0	0.0	1.0	0.0	0.365	90.0	53.0	
9.0	0.0	0.0	1.0	0.0	0.481	90.2	53.4	
10.0	0.0	0.0	1.0	0.0	0.654	89.4	51.4	
11.0	0.0	0.0	1.0	0.0	1.125	90.0	53.0	
12.0	0.0	0.0	1.0	0.0	1.702	89.7	53.0	
13.0	0.0	0.0	1.0	0.0	2.125	90.0	53.2	
14.0	0.0	0.0	1.0	0.0	2.442	89.2	51.0	
15.0	0.0	0.0	1.0	0.0	2.567	89.7	53.0	
0.0	0.0	0.0	1.0	0.0	2.385	89.7	52.7	
1.0	0.0	0.0	1.0	0.0	2.154	90.2	53.4	
2.0	0.0	0.0	1.0	0.0	1.606	89.0	50.7	
3.0	0.0	0.0	1.0	0.0	1.144	90.0	53.0	
4.0	0.0	0.0	1.0	0.0	0.577	90.0	53.0	
5.0	0.0	0.0	1.0	0.0	0.26	90.2	53.2	
6.0	0.0	0.0	1.0	0.0	-0.096	89.0	50.4	
7.0	0.0	0.0	1.0	0.0	-0.163	90.0	53.0	
8.0	0.0	0.0	1.0	0.0	-0.923	90.0	53.0	
9.0	0.0	0.0	1.0	0.0	-1.519	90.0	53.2	
10.0	0.0	0.0	1.0	0.0	-2.106	88.7	51.2	
11.0	0.0	0.0	1.0	0.0	-3.635	89.7	53.4	
12.0	0.0	0.0	1.0	0.0	-2.298	90.0	53.0	
13.0	0.0	0.0	1.0	0.0	-3.0	90.2	53.2	
14.0	0.0	0.0	1.0	0.0	-2.49	89.0	51.2	
15.0	0.0	0.0	1.0	0.0	-1.808	90.0	54.2	
0.0	0.0	0.0	1.0	0.0	-1.663	90.0	53.0	
1.0	0.0	0.0	1.0	0.0	-1.192	90.0	53.2	
2.0	0.0	0.0	1.0	0.0	-0.702	89.0	51.4	
3.0	0.0	0.0	1.0	0.0	-0.346	89.7	54.4	
4.0	0.0	0.0	1.0	0.0	0.0	90.0	53.0	
5.0	0.0	0.0	1.0	0.0	0.038	90.0	53.2	
6.0	0.0	0.0	1.0	0.0	0.115	89.2	52.0	
7.0	0.0	0.0	1.0	0.0	0.375	89.4	54.7	
8.0	0.0	0.0	1.0	0.0	0.712	90.0	53.0	
9.0	0.0	0.0	1.0	0.0	1.144	90.2	53.2	
10.0	0.0	0.0	1.0	0.0	1.298	89.4	52.0	
11.0	0.0	0.0	1.0	0.0	1.298	89.4	54.7	
12.0	0.0	0.0	1.0	0.0	1.413	90.0	53.0	
13.0	0.0	0.0	1.0	0.0	1.442	90.0	53.2	
14.0	0.0	0.0	1.0	0.0	1.26	89.4	52.2	
15.0	0.0	0.0	1.0	0.0	0.952	89.7	54.7	
0.0	0.0	0.0	1.0	0.0	0.548	90.0	53.0	
1.0	0.0	0.0	1.0	0.0	0.404	90.0	53.2	
2.0	0.0	0.0	1.0	0.0	0.375	89.7	52.7	
3.0	0.0	0.0	1.0	0.0	-0.096	89.7	54.2	
4.0	0.0	0.0	1.0	0.0	-0.019	90.0	53.0	
5.0	0.0	0.0	1.0	0.0	-1.798	90.0	53.2	
6.0	0.0	0.0	1.0	0.0	-2.885	90.0	52.7	
7.0	0.0	0.0	1.0	0.0	-3.74	89.4	54.0	
8.0	0.0	0.0	1.0	0.0	-4.106	90.0	53.0	
9.0	0.0	0.0	1.0	0.0	-3.923	90.0	53.2	
10.0	0.0	0.0	1.0	0.0	-3.087	90.0	53.0	
11.0	0.0	0.0	1.0	0.0	-2.327	89.7	53.7	
12.0	0.0	0.0	1.0	0.0	-2.202	90.0	53.0	
13.0	0.0	0.0	1.0	0.0	-1.163	90.0	53.4	
14.0	0.0	0.0	1.0	0.0	-0.625	89.7	52.0	
15.0	0.0	0.0	1.0	0.0	-0.519	89.7	53.7	
0.0	0.0	0.0	1.0	0.0	-0.038	90.0	53.0	
1.0	0.0	0.0	1.0	0.0	0.327	90.0	53.0	
2.0	0.0	0.0	1.0	0.0	0.567	89.4	53.0	
3.0	0.0	0.0	1.0	0.0	0.798	89.7	53.2	
4.0	0.0	0.0	1.0	0.0	0.798	90.0	53.0	
5.0	0.0	0.0	1.0	0.0	1.067	90.0	53.2	
6.0	0.0	0.0	1.0	0.0	1.375	89.7	52.0	
7.0	0.0	0.0	1.0	0.0	1.279	89.4	53.2	
8.0	0.0	0.0	1.0	0.0	1.135	89.7	53.0	
9.0	0.0	0.0	1.0	0.0	1.019	90.0	53.2	
10.0	0.0	0.0	1.0	0.0	0.721	90.0	53.0	
11.0	0.0	0.0	1.0	0.0	0.404	89.4	53.0	
12.0	0.0	0.0	1.0	0.0	0.0	90.0	53.0	
13.0	0.0	0.0	1.0	0.0	0.0	90.0	53.0	
14.0	0.0	0.0	1.0	0.0	0.029	90.2	53.2	
15.0	0.0	0.0	1.0	0.0	-0.356	89.4	52.2	
0.0	0.0	0.0	1.0	0.0	0.067	90.0	53.0	
1.0	0.0	0.0	1.0	0.0	-2.452	90.0	53.0	
2.0	0.0	0.0	1.0	0.0	-2.49	90.2	53.2	
3.0	0.0	0.0	1.0	0.0	-3.529	89.7	52.2	
4.0	0.0	0.0	1.0	0.0	-4.125	90.4	53.0	
5.0	0.0	0.0	1.0	0.0	-4.317	90.0	53.0	
6.0	0.0	0.0	1.0	0.0	-3.462	90.2	53.2	
7.0	0.0	0.0	1.0	0.0	-3.029	89.7	52.0	
8.0	0.0	0.0	1.0	0.0	-2.038	90.7	53.0	
9.0	0.0	0.0	1.0	0.0	-1.519	90.0	53.2	
10.0	0.0	0.0	1.0	0.0	-1.01	90.2	52.4	
11.0	0.0	0.0	1.0	0.0	-0.538	89.7	52.7	
12.0	0.0	0.0	1.0	0.0	-0.183	91.0	53.0	
13.0	0.0	0.0	1.0	0.0	0.058	90.0	53.0	
14.0	0.0	0.0	1.0	0.0	0.212	90.0	53.2	
15.0	0.0	0.0	1.0	0.0	0.519	89.7	52.0	
0.0	0.0	0.0	1.0	0.0	0.837	91.0	53.0	
1.0	0.0	0.0	1.0	0.0	0.962	89.7	53.2	
2.0	0.0	0.0	1.0	0.0	1.231	90.0	52.2	
3.0	0.0	0.0	1.0	0.0	1.663	89.7	52.4	
4.0	0.0	0.0	1.0	0.0	1.76	90.7	53.0	
5.0	0.0	0.0	1.0	0.0	1.5	90.0	53.2	
6.0	0.0	0.0	1.0	0.0	1.087	90.0	52.4	
7.0	0.0	0.0	1.0	0.0	0.731	89.7	52.7	
8.0	0.0	0.0	1.0	0.0	0.51	90.4	53.0	
9.0	0.0	0.0	1.0	0.0	0.106	90.0	53.0	
10.0	0.0	0.0	1.0	0.0	-0.471	90.0	53.4	
11.0	0.0	0.0	1.0	0.0	-0.817	90.0	52.2	
12.0	0.0	0.0	1.0	0.0	-1.288	90.2	52.7	
13.0	0.0	0.0	1.0	0.0	-2.462	90.0	53.0	
14.0	0.0	0.0	1.0	0.0	-4.106	90.0	53.2	
15.0	0.0	0.0	1.0	0.0	-4.712	89.7	52.7	
0.0	0.0	0.0	1.0	0.0	-4.702	90.0	53.0	
1.0	0.0	0.0	1.0	0.0	-4.192	90.0	53.0	
2.0	0.0	0.0	1.0	0.0	-3.5	90.2	53.0	
3.0	0.0	0.0	1.0	0.0	-2.154	90.0	52.2	
4.0	0.0	0.0	1.0	0.0	-1.721	90.0	53.0	
5.0	0.0	0.0	1.0	0.0	-1.058	90.0	53.0	
6.0	0.0	0.0	1.0	0.0	-0.452	90.0	53.2	
7.0	0.0	0.0	1.0	0.0	0.183	89.4	52.7	
8.0	0.0	0.0	1.0	0.0	0.49	89.7	53.0	
9.0	0.0	0.0	1.0	0.0	0.865	90.0	53.0	
10.0	0.0	0.0	1.0	0.0	1.288	90.0	53.2	
11.0	0.0	0.0	1.0	0.0	1.606	89.7	51.4	
12.0	0.0	0.0	1.0	0.0	1.971	90.0	53.0	
13.0	0.0	0.0	1.0	0.0	2.337	89.7	53.0	
14.0	0.0	0.0	1.0	0.0	2.317	90.0	53.4	
15.0	0.0	0.0	1.0	0.0	2.019	89.4	50.7	
0.0	0.0	0.0	1.0	0.0	1.558	90.0	53.0	
1.0	0.0	0.0	1.0	0.0	1.221	90.0	53.0	
2.0	0.0	0.0	1.0	0.0	0.75	90.2	53.2	
3.0	0.0	0.0	1.0	0.0	0.135	89.2	50.7	
4.0	0.0	0.0	1.0	0.0	-0.356	90.0	52.7	
5.0	0.0	0.0	1.0	0.0	-0.76	90.0	53.0	
6.0	0.0	0.0	1.0	0.0	-1.154	90.2	53.4	
7.0	0.0	0.0	1.0	0.0	-1.798	88.7	50.7	
8.0	0.0	0.0	1.0	0.0	-2.298	89.4	53.0	
9.0	0.0	0.0	1.0	0.0	-3.779	90.0	53.0	
10.0	0.0	0.0	1.0	0.0	-4.538	90.2	53.2	
11.0	0.0	0.0	1.0	0.0	-4.288	88.4	51.0	
12.0	0.0	0.0	1.0	0.0	-3.788	90.0	53.7	
13.0	0.0	0.0	1.0	0.0	-3.038	90.0	53.0	
14.0	0.0	0.0	1.0	0.0	-2.029	90.2	53.4	
15.0	0.0	0.0	1.0	0.0	-1.327	89.0	52.0	
0.0	0.0	0.0	1.0	0.0	-1.096	89.7	54.2	
1.0	0.0	0.0	1.0	0.0	-0.558	90.0	53.0	
2.0	0.0	0.0	1.0	0.0	-0.288	90.0	53.2	
3.0	0.0	0.0	1.0	0.0	-0.096	89.2	52.2	
4.0	0.0	0.0	1.0	0.0	0.221	90.0	54.7	
5.0	0.0	0.0	1.0	0.0	0.471	90.0	53.0	
6.0	0.0	0.0	1.0	0.0	0.51	90.0	53.4	
7.0	0.0	0.0	1.0	0.0	0.615	89.7	52.2	
8.0	0.0	0.0	1.0	0.0	0.625	89.7	54.7	
9.0	0.0	0.0	1.0	0.0	0.808	90.0	53.0	
10.0	0.0	0.0	1.0	0.0	1.067	90.0	53.2	
11.0	0.0	0.0	1.0	0.0	1.423	89.4	52.2	
12.0	0.0	0.0	1.0	0.0	1.375	89.7	54.7	
13.0	0.0	0.0	1.0	0.0	1.221	90.0	53.0	
14.0	0.0	0.0	1.0	0.0	0.923	90.2	53.0	
15.0	0.0	0.0	1.0	0.0	0.452	90.0	52.0	
0.0	0.0	0.0	1.0	0.0	-0.106	89.7	54.7	
1.0	0.0	0.0	1.0	0.0	-0.25	90.0	53.0	
2.0	0.0	0.0	1.0	0.0	-0.519	90.2	53.4	
3.0	0.0	0.0	1.0	0.0	-2.279	90.0	52.2	
4.0	0.0	0.0	1.0	0.0	-1.875	90.0	54.2	
5.0	0.0	0.0	1.0	0.0	-2.404	90.0	53.0	
6.0	0.0	0.0	1.0	0.0	-3.442	90.0	53.2	
7.0	0.0	0.0	1.0	0.0	-3.577	90.0	52.0	
8.0	0.0	0.0	1.0	0.0	-3.519	89.4	54.2	
9.0	0.0	0.0	1.0	0.0	-2.721	90.0	53.0	
10.0	0.0	0.0	1.0	0.0	-1.952	90.0	53.4	
11.0	0.0	0.0	1.0	0.0	-1.317	89.7	52.2	
12.0	0.0	0.0	1.0	0.0	-1.01	89.7	53.7	
13.0	0.0	0.0	1.0	0.0	-0.817	90.0	53.0	
14.0	0.0	0.0	1.0	0.0	-0.529	90.0	53.2	
15.0	0.0	0.0	1.0	0.0	-0.202	90.0	52.0	
0.0	0.0	0.0	1.0	0.0	0.058	89.7	53.4	
1.0	0.0	0.0	1.0	0.0	0.452	90.0	53.0	
2.0	0.0	0.0	1.0	0.0	0.798	90.0	53.4	
3.0	0.0	0.0	1.0	0.0	1.26	89.4	52.7	
4.0	0.0	0.0	1.0	0.0	1.606	89.4	53.2	
5.0	0.0	0.0	1.0	0.0	2.038	90.0	53.0	
6.0	0.0	0.0	1.0	0.0	2.51	90.0	53.2	
7.0	0.0	0.0	1.0	0.0	2.317	89.4	53.2	
8.0	0.0	0.0	1.0	0.0	1.971	89.2	53.0	
9.0	0.0	0.0	1.0	0.0	1.317	90.0	53.0	
10.0	0.0	0.0	1.0	0.0	1.125	90.0	53.2	
11.0	0.0	0.0	1.0	0.0	0.769	90.0	53.0	
12.0	0.0	0.0	1.0	0.0	0.615	89.4	53.0	
13.0	0.0	0.0	1.0	0.0	0.183	90.0	53.0	
14.0	0.0	0.0	1.0	0.0	0.115	90.0	53.2	
15.0	0.0	0.0	1.0	0.0	-0.231	90.0	53.2	
0.0	0.0	0.0	1.0	0.0	-1.115	89.7	52.7	
1.0	0.0	0.0	1.0	0.0	-2.01	90.2	53.0	
2.0	0.0	0.0	1.0	0.0	-2.5	90.0	53.0	
3.0	0.0	0.0	1.0	0.0	-3.144	90.0	53.0	
4.0	0.0	0.0	1.0	0.0	-1.875	90.0	52.0	
5.0	0.0	0.0	1.0	0.0	-1.029	90.4	53.0	
6.0	0.0	0.0	1.0	0.0	-2.288	90.0	53.0	
7.0	0.0	0.0	1.0	0.0	-1.692	90.0	52.4	
8.0	0.0	0.0	1.0	0.0	-1.212	90.0	52.7	
9.0	0.0	0.0	1.0	0.0	-0.471	91.0	53.0	
10.0	0.0	0.0	1.0	0.0	-0.135	90.0	53.2	
11.0	0.0	0.0	1.0	0.0	-0.279	90.2	53.0	
12.0	0.0	0.0	1.0	0.0	-0.308	89.4	52.4	
13.0	0.0	0.0	1.0	0.0	0.221	91.0	53.0	
14.0	0.0	0.0	1.0	0.0	0.452	90.0	53.2	
15.0	0.0	0.0	1.0	0.0	0.202	89.7	53.0	
0.0	0.0	0.0	1.0	0.0	0.298	89.7	52.4	
1.0	0.0	0.0	1.0	0.0	0.423	90.7	53.0	
2.0	0.0	0.0	1.0	0.0	0.317	90.0	53.0	
3.0	0.0	0.0	1.0	0.0	0.269	90.2	53.0	
4.0	0.0	0.0	1.0	0.0	0.067	89.4	52.7	
5.0	0.0	0.0	1.0	0.0	-0.01	90.4	53.0	
6.0	0.0	0.0	1.0	0.0	-0.135	90.0	53.0	
7.0	0.0	0.0	1.0	0.0	-0.25	90.2	53.0	
8.0	0.0	0.0	1.0	0.0	-0.423	89.4	52.2	
9.0	0.0	0.0	1.0	0.0	-0.452	90.2	53.0	
10.0	0.0	0.0	1.0	0.0	-0.731	90.0	53.0	
11.0	0.0	0.0	1.0	0.0	-0.577	90.0	53.0	
12.0	0.0	0.0	1.0	0.0	-0.548	89.7	52.0	
13.0	0.0	0.0	1.0	0.0	-0.654	90.2	53.0	
14.0	0.0	0.0	1.0	0.0	-0.577	90.0	53.0	
15.0	0.0	0.0	1.0	0.0	-0.635	90.2	53.0	
0.0	0.0	0.0	1.0	0.0	-0.538	90.0	52.4	
1.0	0.0	0.0	1.0	0.0	-0.548	90.0	53.0	
2.0	0.0	0.0	1.0	0.0	-0.51	90.0	53.0	
3.0	0.0	0.0	1.0	0.0	-0.519	90.0	53.4	
4.0	0.0	0.0	1.0	0.0	-0.529	89.7	52.2	
5.0	0.0	0.0	1.0	0.0	-0.433	89.7	53.0	
6.0	0.0	0.0	1.0	0.0	-0.596	90.0	53.0	
7.0	0.0	0.0	1.0	0.0	-0.615	90.2	53.2	
8.0	0.0	0.0	1.0	0.0	-0.548	89.7	52.0	
9.0	0.0	0.0	1.0	0.0	-0.538	90.0	53.0	
10.0	0.0	0.0	1.0	0.0	-0.654	90.0	53.0	
11.0	0.0	0.0	1.0	0.0	-0.635	90.0	53.0	
12.0	0.0	0.0	1.0	0.0	-0.635	90.0	51.0	
13.0	0.0	0.0	1.0	0.0	-0.654	90.0	53.0	
14.0	0.0	0.0	1.0	0.0	-0.558	90.0	53.0	
15.0	0.0	0.0	1.0	0.0	-0.644	90.0	53.2	
0.0	0.0	0.0	1.0	0.0	-0.462	89.7	50.7	
1.0	0.0	0.0	1.0	0.0	-0.74	89.7	53.0	
2.0	0.0	0.0	1.0	0.0	-0.654	90.0	53.0	
3.0	0.0	0.0	1.0	0.0	-0.712	90.0	53.2	
4.0	0.0	0.0	1.0	0.0	-0.577	89.2	50.4	
5.0	0.0	0.0	1.0	0.0	-0.394	89.7	53.0	
6.0	0.0	0.0	1.0	0.0	-0.337	90.0	53.0	
7.0	0.0	0.0	1.0	0.0	-0.337	90.0	53.2	
8.0	0.0	0.0	1.0	0.0	-0.375	88.7	50.7	
9.0	0.0	0.0	1.0	0.0	-0.471	89.7	53.2	
10.0	0.0	0.0	1.0	0.0	-0.548	90.0	53.0	
11.0	0.0	0.0	1.0	0.0	-0.423	90.2	53.4	
12.0	0.0	0.0	1.0	0.0	-0.24	88.7	51.2	
13.0	0.0	0.0	1.0	0.0	-0.144	89.7	54.0	
14.0	0.0	0.0	1.0	0.0	-0.212	90.0	53.0	
15.0	0.0	0.0	1.0	0.0	-0.173	90.2	53.4	
0.0	0.0	0.0	1.0	0.0	-0.048	88.7	51.7	
1.0	0.0	0.0	1.0	0.0	-0.154	90.0	54.2	
2.0	0.0	0.0	1.0	0.0	-0.356	90.0	53.0	
3.0	0.0	0.0	1.0	0.0	-0.423	90.0	53.2	
4.0	0.0	0.0	1.0	0.0	-0.471	89.2	51.7	
5.0	0.0	0.0	1.0	0.0	-0.558	89.7	54.7	
6.0	0.0	0.0	1.0	0.0	-0.577	90.0	53.0	
7.0	0.0	0.0	1.0	0.0	-0.577	90.0	53.4	
8.0	0.0	0.0	1.0	0.0	-0.683	89.4	52.0	
9.0	0.0	0.0	1.0	0.0	-0.798	89.7	54.7	
10.0	0.0	0.0	1.0	0.0	-0.962	90.0	53.0	
11.0	0.0	0.0	1.0	0.0	-0.817	90.2	53.4	
12.0	0.0	0.0	1.0	0.0	-0.769	89.7	52.0	
13.0	0.0	0.0	1.0	0.0	-0.808	89.7	54.7	
14.0	0.0	0.0	1.0	0.0	-0.885	90.0	53.0	
15.0	0.0	0.0	1.0	0.0	-0.933	90.0	53.2	
0.0	0.0	0.0	1.0	0.0	-0.971	90.0	52.0	
1.0	0.0	0.0	1.0	0.0	-0.923	90.0	54.4	
2.0	0.0	0.0	1.0	0.0	-0.962	90.0	53.0	
3.0	0.0	0.0	1.0	0.0	-1.029	90.0	53.4	
4.0	0.0	0.0	1.0	0.0	-1.029	90.0	52.0	
5.0	0.0	0.0	1.0	0.0	-0.981	89.7	54.2	
6.0	0.0	0.0	1.0	0.0	-1.01	90.0	53.0	
7.0	0.0	0.0	1.0	0.0	-1.048	90.0	53.0	
8.0	0.0	0.0	1.0	0.0	-1.067	89.7	52.0	
9.0	0.0	0.0	1.0	0.0	-0.99	89.7	54.2	
10.0	0.0	0.0	1.0	0.0	-0.846	90.0	53.0	
11.0	0.0	0.0	1.0	0.0	-0.76	90.0	53.2	
12.0	0.0	0.0	1.0	0.0	-0.731	89.7	52.2	
13.0	0.0	0.0	1.0	0.0	-0.779	90.0	54.0	
14.0	0.0	0.0	1.0	0.0	-0.827	90.0	53.0	
15.0	0.0	0.0	1.0	0.0	-0.913	90.0	53.0	
0.0	0.0	0.0	1.0	0.0	-1.01	89.7	52.7	
1.0	0.0	0.0	1.0	0.0	-1.0	89.7	53.4	
2.0	0.0	0.0	1.0	0.0	-0.971	90.0	53.0	
3.0	0.0	0.0	1.0	0.0	-0.865	90.0	53.0	
4.0	0.0	0.0	1.0	0.0	-0.856	89.7	53.2	
5.0	0.0	0.0	1.0	0.0	-0.856	89.7	53.2	
6.0	0.0	0.0	1.0	0.0	-0.74	90.0	53.0	
7.0	0.0	0.0	1.0	0.0	-0.779	90.0	53.2	
8.0	0.0	0.0	1.0	0.0	-0.875	89.7	53.0	
9.0	0.0	0.0	1.0	0.0	-0.894	89.7	53.2	
10.0	0.0	0.0	1.0	0.0	-0.894	90.0	53.0	
11.0	0.0	0.0	1.0	0.0	-0.817	90.0	53.2	
12.0	0.0	0.0	1.0	0.0	-0.904	89.7	52.2	
13.0	0.0	0.0	1.0	0.0	-0.837	89.7	53.0	
14.0	0.0	0.0	1.0	0.0	-0.788	90.0	53.0	
15.0	0.0	0.0	1.0	0.0	-0.808	90.0	53.0	
0.0	0.0	0.0	1.0	0.0	-0.75	90.0	52.2	
1.0	0.0	0.0	1.0	0.0	-0.846	89.7	52.7	
2.0	0.0	0.0	1.0	0.0	-0.74	90.2	53.0	
3.0	0.0	0.0	1.0	0.0	-0.75	90.0	53.0	
4.0	0.0	0.0	1.0	0.0	-0.875	90.2	52.2	
5.0	0.0	0.0	1.0	0.0	-0.904	89.7	52.7	
6.0	0.0	0.0	1.0	0.0	-0.817	90.7	53.0	
7.0	0.0	0.0	1.0	0.0	-0.942	90.0	53.0	
8.0	0.0	0.0	1.0	0.0	-1.0	90.0	53.2	
9.0	0.0	0.0	1.0	0.0	-0.827	90.0	52.0	
10.0	0.0	0.0	1.0	0.0	-0.769	91.0	53.0	
11.0	0.0	0.0	1.0	0.0	-0.846	90.0	53.2	
12.0	0.0	0.0	1.0	0.0	-0.962	90.2	53.2	
13.0	0.0	0.0	1.0	0.0	-1.077	89.7	52.0	
14.0	0.0	0.0	1.0	0.0	-1.067	91.0	53.0	
15.0	0.0	0.0	1.0	0.0	-1.048	90.0	53.0	
0.0	0.0	0.0	1.0	0.0	-0.933	90.2	52.7	
1.0	0.0	0.0	1.0	0.0	-0.817	89.7	52.0	
2.0	0.0	0.0	1.0	0.0	-0.74	90.7	53.0	
3.0	0.0	0.0	1.0	0.0	-0.721	90.0	53.0	
4.0	0.0	0.0	1.0	0.0	-0.702	90.2	52.7	
5.0	0.0	0.0	1.0	0.0	-0.712	89.7	52.0	
6.0	0.0	0.0	1.0	0.0	-0.731	90.4	53.0	
7.0	0.0	0.0	1.0	0.0	-0.74	90.0	53.0	
8.0	0.0	0.0	1.0	0.0	-0.779	90.2	53.0	
9.0	0.0	0.0	1.0	0.0	-0.808	89.7	52.0	
10.0	0.0	0.0	1.0	0.0	-0.817	90.2	53.0	
11.0	0.0	0.0	1.0	0.0	-0.827	90.0	53.0	
12.0	0.0	0.0	1.0	0.0	-0.788	90.0	53.2	
13.0	0.0	0.0	1.0	0.0	-0.74	89.7	52.7	
14.0	0.0	0.0	1.0	0.0	-0.779	90.0	53.0	
15.0	0.0	0.0	1.0	0.0	-0.798	90.0	53.0	
0.0	0.0	0.0	1.0	0.0	-0.75	90.2	53.0	
1.0	0.0	0.0	1.0	0.0	-0.769	89.4	52.4	
2.0	0.0	0.0	1.0	0.0	-0.827	90.0	53.0	
3.0	0.0	0.0	1.0	0.0	-0.846	90.0	53.0	
4.0	0.0	0.0	1.0	0.0	-0.798	90.2	53.2	
5.0	0.0	0.0	1.0	0.0	-0.846	90.0	52.2	
6.0	0.0	0.0	1.0	0.0	-1.269	89.7	53.0	
7.0	0.0	0.0	1.0	0.0	-1.346	90.0	53.0	
8.0	0.0	0.0	1.0	0.0	-1.163	90.2	53.2	
9.0	0.0	0.0	1.0	0.0	-0.962	90.0	52.0	
10.0	0.0	0.0	1.0	0.0	-1.365	90.0	53.0	
11.0	0.0	0.0	1.0	0.0	-0.635	90.0	53.0	
12.0	0.0	0.0	1.0	0.0	0.01	90.2	53.2	
13.0	0.0	0.0	1.0	0.0	0.038	89.4	51.2	
14.0	0.0	0.0	1.0	0.0	-0.048	90.0	53.0	
15.0	0.0	0.0	1.0	0.0	-1.308	90.0	53.0	
0.0	0.0	0.0	1.0	0.0	-0.913	90.2	53.4	
1.0	0.0	0.0	1.0	0.0	-0.231	89.4	51.0	
2.0	0.0	0.0	1.0	0.0	-0.394	90.0	53.0	
3.0	0.0	0.0	1.0	0.0	-0.923	90.0	53.0	
4.0	0.0	0.0	1.0	0.0	-0.885	90.0	53.4	
5.0	0.0	0.0	1.0	0.0	-0.471	89.0	50.7	
6.0	0.0	0.0	1.0	0.0	-0.606	89.7	53.0	
7.0	0.0	0.0	1.0	0.0	-0.442	90.0	53.0	
8.0	0.0	0.0	1.0	0.0	-0.423	90.0	53.2	
9.0	0.0	0.0	1.0	0.0	-0.462	88.7	50.7	
10.0	0.0	0.0	1.0	0.0	-0.538	89.7	53.2	
11.0	0.0	0.0	1.0	0.0	-0.654	90.0	53.0	
12.0	0.0	0.0	1.0	0.0	-0.423	90.0	53.2	
13.0	0.0	0.0	1.0	0.0	-0.25	88.7	51.0	
14.0	0.0	0.0	1.0	0.0	-0.558	90.0	54.0	
15.0	0.0	0.0	1.0	0.0	-0.885	90.0	53.0	
0.0	0.0	0.0	1.0	0.0	-0.894	90.0	53.2	
1.0	0.0	0.0	1.0	0.0	-0.769	89.0	51.7	
2.0	0.0	0.0	1.0	0.0	-1.106	90.0	54.4	
3.0	0.0	0.0	1.0	0.0	-0.894	90.0	53.0	
4.0	0.0	0.0	1.0	0.0	-0.769	90.0	53.2	
5.0	0.0	0.0	1.0	0.0	-0.875	89.2	52.0	
6.0	0.0	0.0	1.0	0.0	-0.798	90.0	54.7	
7.0	0.0	0.0	1.0	0.0	-0.692	90.0	53.0	
8.0	0.0	0.0	1.0	0.0	-0.577	90.0	53.2	
9.0	0.0	0.0	1.0	0.0	-0.577	89.7	52.4	
10.0	0.0	0.0	1.0	0.0	-0.471	89.7	54.7	
11.0	0.0	0.0	1.0	0.0	-0.442	90.0	53.0	
12.0	0.0	0.0	1.0	0.0	-0.548	90.0	53.2	
13.0	0.0	0.0	1.0	0.0	-0.538	90.0	52.0	
14.0	0.0	0.0	1.0	0.0	-0.625	89.7	54.7	
15.0	0.0	0.0	1.0	0.0	-0.663	90.0	53.0	
0.0	0.0	0.0	1.0	0.0	-0.721	90.0	53.2	
1.0	0.0	0.0	1.0	0.0	-0.788	90.2	52.0	
2.0	0.0	0.0	1.0	0.0	-0.885	89.7	54.4	
3.0	0.0	0.0	1.0	0.0	-0.933	90.0	53.0	
4.0	0.0	0.0	1.0	0.0	-0.99	90.2	53.2	
5.0	0.0	0.0	1.0	0.0	-0.923	90.2	52.7	
6.0	0.0	0.0	1.0	0.0	-0.894	89.7	54.2	
7.0	0.0	0.0	1.0	0.0	-0.856	90.0	53.0	
8.0	0.0	0.0	1.0	0.0	-0.788	90.0	53.0	
9.0	0.0	0.0	1.0	0.0	-0.663	89.7	52.7	
10.0	0.0	0.0	1.0	0.0	-0.692	89.7	54.0	
11.0	0.0	0.0	1.0	0.0	-0.663	90.0	53.0	
12.0	0.0	0.0	1.0	0.0	-0.644	90.2	53.2	
13.0	0.0	0.0	1.0	0.0	-0.606	89.7	52.7	
14.0	0.0	0.0	1.0	0.0	-0.635	89.7	53.4	
15.0	0.0	0.0	1.0	0.0	-0.654	90.0	53.0	
0.0	0.0	0.0	1.0	0.0	-0.692	90.0	53.2	
1.0	0.0	0.0	1.0	0.0	-0.769	89.4	53.2	
2.0	0.0	0.0	1.0	0.0	-0.827	89.7	53.4	
3.0	0.0	0.0	1.0	0.0	-0.808	90.0	53.0	
4.0	0.0	0.0	1.0	0.0	-0.798	90.0	53.0	
5.0	0.0	0.0	1.0	0.0	-0.885	90.0	52.2	
6.0	0.0	0.0	1.0	0.0	-0.856	89.7	53.2	
7.0	0.0	0.0	1.0	0.0	-0.894	90.0	52.7	
8.0	0.0	0.0	1.0	0.0	-0.865	90.0	53.2	
9.0	0.0	0.0	1.0	0.0	-0.817	90.0	52.0	
10.0	0.0	0.0	1.0	0.0	-0.865	89.7	53.0	
11.0	0.0	0.0	1.0	0.0	-0.808	90.0	53.0	
12.0	0.0	0.0	1.0	0.0	-0.808	90.0	53.2	
13.0	0.0	0.0	1.0	0.0	-0.808	90.2	53.0	
14.0	0.0	0.0	1.0	0.0	-0.856	89.7	52.4	
15.0	0.0	0.0	1.0	0.0	-0.788	90.0	53.0	
0.0	0.0	0.0	1.0	0.0	-0.788	90.0	53.2	
1.0	0.0	0.0	1.0	0.0	-0.808	90.2	53.4	
2.0	0.0	0.0	1.0	0.0	-0.808	89.7	52.7	
3.0	0.0	0.0	1.0	0.0	-0.817	90.2	53.0	
4.0	0.0	0.0	1.0	0.0	-0.817	90.0	53.0	
5.0	0.0	0.0	1.0	0.0	-0.788	90.2	53.0	
6.0	0.0	0.0	1.0	0.0	-0.817	89.7	52.7	
7.0	0.0	0.0	1.0	0.0	-0.817	90.7	53.0	
8.0	0.0	0.0	1.0	0.0	-0.788	90.0	53.0	
9.0	0.0	0.0	1.0	0.0	-0.798	90.0	52.2	
10.0	0.0	0.0	1.0	0.0	-0.788	89.7	52.7	
11.0	0.0	0.0	1.0	0.0	-0.779	91.0	53.0	
12.0	0.0	0.0	1.0	0.0	-0.788	90.0	53.0	
13.0	0.0	0.0	1.0	0.0	-0.779	90.0	53.0	
14.0	0.0	0.0	1.0	0.0	-0.798	89.7	52.7	
15.0	0.0	0.0	1.0	0.0	-0.817	91.0	53.0	
0.0	0.0	0.0	1.0	0.0	-0.837	90.0	53.0	
1.0	0.0	0.0	1.0	0.0	-0.808	90.2	52.0	
2.0	0.0	0.0	1.0	0.0	-0.856	89.7	52.2	
3.0	0.0	0.0	1.0	0.0	-0.856	90.7	53.0	
4.0	0.0	0.0	1.0	0.0	-0.885	90.0	53.2	
5.0	0.0	0.0	1.0	0.0	-0.846	90.2	53.2	
6.0	0.0	0.0	1.0	0.0	-0.856	89.7	52.0	
7.0	0.0	0.0	1.0	0.0	-0.846	90.4	53.0	
8.0	0.0	0.0	1.0	0.0	-0.894	90.0	53.0	
9.0	0.0	0.0	1.0	0.0	-0.885	90.2	53.2	
10.0	0.0	0.0	1.0	0.0	-0.904	90.0	52.7	
11.0	0.0	0.0	1.0	0.0	-0.846	90.2	53.0	
12.0	0.0	0.0	1.0	0.0	-0.846	90.0	53.0	
13.0	0.0	0.0	1.0	0.0	-0.856	90.2	53.2	
14.0	0.0	0.0	1.0	0.0	-0.894	90.0	52.4	
15.0	0.0	0.0	1.0	0.0	-0.894	90.2	53.0	
0.0	0.0	0.0	1.0	0.0	-0.865	90.0	53.0	
1.0	0.0	0.0	1.0	0.0	-0.827	90.2	53.0	
2.0	0.0	0.0	1.0	0.0	-0.817	89.7	52.7	
3.0	0.0	0.0	1.0	0.0	-0.885	90.0	53.0	
4.0	0.0	0.0	1.0	0.0	-0.885	90.0	53.0	
5.0	0.0	0.0	1.0	0.0	-0.885	90.2	53.2	
6.0	0.0	0.0	1.0	0.0	-0.837	90.0	52.2	
7.0	0.0	0.0	1.0	0.0	-0.846	90.0	53.0	
8.0	0.0	0.0	1.0	0.0	-0.827	90.0	53.0	
9.0	0.0	0.0	1.0	0.0	-0.837	90.0	53.2	
10.0	0.0	0.0	1.0	0.0	-0.837	89.7	51.4	
11.0	0.0	0.0	1.0	0.0	-0.875	89.7	53.0	
12.0	0.0	0.0	1.0	0.0	-0.856	90.0	53.0	
13.0	0.0	0.0	1.0	0.0	-0.846	90.2	53.4	
14.0	0.0	0.0	1.0	0.0	-0.798	89.7	51.0	
15.0	0.0	0.0	1.0	0.0	-0.846	89.7	53.0	
0.0	0.0	0.0	1.0	0.0	-0.894	90.0	53.0	
1.0	0.0	0.0	1.0	0.0	-0.885	90.2	53.4	
2.0	0.0	0.0	1.0	0.0	-0.885	89.4	50.4	
3.0	0.0	0.0	1.0	0.0	-0.875	89.7	53.0	
4.0	0.0	0.0	1.0	0.0	-0.865	90.0	53.0	
5.0	0.0	0.0	1.0	0.0	-0.846	90.2	53.2	
6.0	0.0	0.0	1.0	0.0	-0.856	89.0	50.7	
7.0	0.0	0.0	1.0	0.0	-0.875	90.0	53.0	
8.0	0.0	0.0	1.0	0.0	-0.865	90.0	53.0	
9.0	0.0	0.0	1.0	0.0	-0.865	90.0	53.2	
10.0	0.0	0.0	1.0	0.0	-0.865	88.7	51.0	
11.0	0.0	0.0	1.0	0.0	-0.875	89.7	53.4	
12.0	0.0	0.0	1.0	0.0	-0.875	90.0	53.0	
13.0	0.0	0.0	1.0	0.0	-0.865	90.2	53.2	
14.0	0.0	0.0	1.0	0.0	-0.846	89.0	51.4	
15.0	0.0	0.0	1.0	0.0	-0.856	90.0	54.2	
0.0	0.0	0.0	1.0	0.0	-0.846	90.0	53.0	
1.0	0.0	0.0	1.0	0.0	-0.846	90.0	53.4	
2.0	0.0	0.0	1.0	0.0	-0.865	89.0	52.0	
3.0	0.0	0.0	1.0	0.0	-0.875	90.0	54.4	
4.0	0.0	0.0	1.0	0.0	-0.865	90.0	53.0	
5.0	0.0	0.0	1.0	0.0	-0.885	90.0	53.2	
6.0	0.0	0.0	1.0	0.0	-0.865	89.4	52.2	
7.0	0.0	0.0	1.0	0.0	-0.875	89.7	54.7	
8.0	0.0	0.0	1.0	0.0	-0.885	90.0	53.0	
9.0	0.0	0.0	1.0	0.0	-0.846	90.2	53.2	
10.0	0.0	0.0	1.0	0.0	-0.875	90.0	52.0	
11.0	0.0	0.0	1.0	0.0	-0.894	90.0	54.7	
12.0	0.0	0.0	1.0	0.0	-0.904	90.0	53.0	
13.0	0.0	0.0	1.0	0.0	-0.885	90.0	53.0	
14.0	0.0	0.0	1.0	0.0	-0.837	90.0	52.7	
15.0	0.0	0.0	1.0	0.0	-0.827	89.7	54.4	
0.0	0.0	0.0	1.0	0.0	-0.885	90.0	53.0	
1.0	0.0	0.0	1.0	0.0	-0.865	90.2	53.2	
2.0	0.0	0.0	1.0	0.0	-0.837	90.2	52.2	
3.0	0.0	0.0	1.0	0.0	-0.885	90.0	54.4	
4.0	0.0	0.0	1.0	0.0	-0.865	90.0	53.0	
5.0	0.0	0.0	1.0	0.0	-0.856	90.0	53.2	
6.0	0.0	0.0	1.0	0.0	-0.875	90.0	52.2	
7.0	0.0	0.0	1.0	0.0	-0.865	90.0	54.2	
8.0	0.0	0.0	1.0	0.0	-0.865	90.0	53.0	
9.0	0.0	0.0	1.0	0.0	-0.865	90.0	53.2	
10.0	0.0	0.0	1.0	0.0	-0.865	90.2	52.0	
11.0	0.0	0.0	1.0	0.0	-0.885	89.7	54.0	
12.0	0.0	0.0	1.0	0.0	-0.885	90.0	53.0	
13.0	0.0	0.0	1.0	0.0	-0.875	90.2	53.4	
14.0	0.0	0.0	1.0	0.0	-0.875	90.0	52.0	
15.0	0.0	0.0	1.0	0.0	-0.865	89.7	53.7	
0.0	0.0	0.0	1.0	0.0	-0.846	90.0	53.0	
1.0	0.0	0.0	1.0	0.0	-0.827	90.2	53.2	
2.0	0.0	0.0	1.0	0.0	-0.856	90.0	52.7	
3.0	0.0	0.0	1.0	0.0	-0.865	89.7	53.4	
4.0	0.0	0.0	1.0	0.0	-0.875	90.0	53.0	
5.0	0.0	0.0	1.0	0.0	-0.885	90.2	53.2	
6.0	0.0	0.0	1.0	0.0	-0.865	90.0	52.4	
7.0	0.0	0.0	1.0	0.0	-0.865	89.7	53.2	
8.0	0.0	0.0	1.0	0.0	-0.894	90.0	53.0	
9.0	0.0	0.0	1.0	0.0	-0.875	90.2	53.2	
10.0	0.0	0.0	1.0	0.0	-0.856	90.2	52.0	
11.0	0.0	0.0	1.0	0.0	-0.856	89.7	53.0	
12.0	0.0	0.0	1.0	0.0	-0.856	90.0	53.0	
13.0	0.0	0.0	1.0	0.0	-0.827	90.0	53.2	
14.0	0.0	0.0	1.0	0.0	-0.875	90.2	52.7	
15.0	0.0	0.0	1.0	0.0	-0.894	89.7	53.0	
0.0	0.0	0.0	1.0	0.0	-0.856	90.0	53.0	
1.0	0.0	0.0	1.0	0.0	-0.856	90.0	53.2	
2.0	0.0	0.0	1.0	0.0	-0.885	90.2	52.0	
3.0	0.0	0.0	1.0	0.0	-0.856	89.7	52.7	
4.0	0.0	0.0	1.0	0.0	-0.904	90.4	53.0	
5.0	0.0	0.0	1.0	0.0	-0.875	90.0	53.2	
6.0	0.0	0.0	1.0	0.0	-0.827	90.0	52.0	
7.0	0.0	0.0	1.0	0.0	-0.837	90.0	52.7	
8.0	0.0	0.0	1.0	0.0	-0.885	91.0	53.0	
9.0	0.0	0.0	1.0	0.0	-0.885	90.0	53.2	
10.0	0.0	0.0	1.0	0.0	-0.865	90.2	53.0	
11.0	0.0	0.0	1.0	0.0	-0.875	89.7	52.4	
12.0	0.0	0.0	1.0	0.0	-0.885	91.0	53.0	
13.0	0.0	0.0	1.0	0.0	-0.885	90.0	53.2	
14.0	0.0	0.0	1.0	0.0	-0.875	90.2	52.4	
15.0	0.0	0.0	1.0	0.0	-0.875	89.7	52.7	
0.0	0.0	0.0	1.0	0.0	-0.865	91.0	53.0	
1.0	0.0	0.0	1.0	0.0	-0.856	90.0	53.0	
2.0	0.0	0.0	1.0	0.0	-0.856	90.2	53.2	
3.0	0.0	0.0	1.0	0.0	-0.885	89.7	52.2	
4.0	0.0	0.0	1.0	0.0	-0.885	90.7	53.0	
5.0	0.0	0.0	1.0	0.0	-0.846	90.0	53.0	
6.0	0.0	0.0	1.0	0.0	-0.865	90.2	52.4	
7.0	0.0	0.0	1.0	0.0	-0.875	90.0	52.7	
8.0	0.0	0.0	1.0	0.0	-0.865	90.4	53.0	
9.0	0.0	0.0	1.0	0.0	-0.846	90.0	53.2	
10.0	0.0	0.0	1.0	0.0	-0.875	90.2	52.7	
11.0	0.0	0.0	1.0	0.0	-0.885	89.7	52.4	
12.0	0.0	0.0	1.0	0.0	-0.875	90.2	53.0	
13.0	0.0	0.0	1.0	0.0	-0.837	90.0	53.0	
14.0	0.0	0.0	1.0	0.0	-0.856	90.2	53.0	
15.0	0.0	0.0	1.0	0.0	-0.885	90.0	52.2	
0.0	0.0	0.0	1.0	0.0	-0.885	90.0	53.0	
1.0	0.0	0.0	1.0	0.0	-0.865	90.0	53.0	
2.0	0.0	0.0	1.0	0.0	-0.846	90.2	53.2	
3.0	0.0	0.0	1.0	0.0	-0.904	90.0	52.2	
4.0	0.0	0.0	1.0	0.0	-0.885	90.0	53.0	
5.0	0.0	0.0	1.0	0.0	-0.875	90.0	53.0	
6.0	0.0	0.0	1.0	0.0	-0.865	90.2	53.4	
7.0	0.0	0.0	1.0	0.0	-0.865	90.0	52.4	
8.0	0.0	0.0	1.0	0.0	-0.856	90.0	53.0	
9.0	0.0	0.0	1.0	0.0	-0.856	90.0	53.2	
10.0	0.0	0.0	1.0	0.0	-0.875	90.2	53.2	
11.0	0.0	0.0	1.0	0.0	-0.875	90.0	52.0	
12.0	0.0	0.0	1.0	0.0	-0.875	90.0	53.0	
13.0	0.0	0.0	1.0	0.0	-0.856	90.0	53.0	
14.0	0.0	0.0	1.0	0.0	-0.875	90.2	53.2	
15.0	0.0	0.0	1.0	0.0	-0.865	89.7	51.2	
0.0	0.0	0.0	1.0	0.0	-0.865	89.7	53.0	
1.0	0.0	0.0	1.0	0.0	-0.856	90.0	53.0	
2.0	0.0	0.0	1.0	0.0	-0.875	90.2	53.2	
3.0	0.0	0.0	1.0	0.0	-0.865	89.2	51.0	
4.0	0.0	0.0	1.0	0.0	-0.875	89.7	53.0	
5.0	0.0	0.0	1.0	0.0	-0.885	90.0	53.0	
6.0	0.0	0.0	1.0	0.0	-0.865	90.2	53.2	
7.0	0.0	0.0	1.0	0.0	-0.875	89.0	50.7	
8.0	0.0	0.0	1.0	0.0	-0.856	89.7	53.0	
9.0	0.0	0.0	1.0	0.0	-0.875	90.0	53.0	
10.0	0.0	0.0	1.0	0.0	-0.856	90.2	53.2	
11.0	0.0	0.0	1.0	0.0	-0.865	88.7	51.0	
12.0	0.0	0.0	1.0	0.0	-0.875	89.7	53.4	
13.0	0.0	0.0	1.0	0.0	-0.885	90.0	53.0	
14.0	0.0	0.0	1.0	0.0	-0.865	90.2	53.4	
15.0	0.0	0.0	1.0	0.0	-0.885	89.0	51.7	
0.0	0.0	0.0	1.0	0.0	-0.846	89.7	54.2	
1.0	0.0	0.0	1.0	0.0	-0.865	90.0	53.0	
2.0	0.0	0.0	1.0	0.0	-0.875	90.2	53.2	
3.0	0.0	0.0	1.0	0.0	-0.894	89.2	51.4	
4.0	0.0	0.0	1.0	0.0	-0.885	89.7	54.4	
5.0	0.0	0.0	1.0	0.0	-0.865	90.0	53.0	
6.0	0.0	0.0	1.0	0.0	-0.894	90.0	53.2	
7.0	0.0	0.0	1.0	0.0	-0.856	89.4	52.0	
8.0	0.0	0.0	1.0	0.0	-0.875	89.7	54.7	
9.0	0.0	0.0	1.0	0.0	-0.856	90.0	53.0	
10.0	0.0	0.0	1.0	0.0	-0.856	90.0	53.2	
11.0	0.0	0.0	1.0	0.0	-0.875	90.0	52.2	
12.0	0.0	0.0	1.0	0.0	-0.894	90.0	54.7	
13.0	0.0	0.0	1.0	0.0	-0.856	90.0	53.0	
14.0	0.0	0.0	1.0	0.0	-0.856	90.0	53.2	
15.0	0.0	0.0	1.0	0.0	-0.875	90.0	52.0	
0.0	0.0	0.0	1.0	0.0	-0.885	89.7	54.7	
1.0	0.0	0.0	1.0	0.0	-0.875	90.0	53.0	
2.0	0.0	0.0	1.0	0.0	-0.856	90.2	53.2	
3.0	0.0	0.0	1.0	0.0	-0.837	90.2	52.7	
4.0	0.0	0.0	1.0	0.0	-0.875	89.7	54.2	
5.0	0.0	0.0	1.0	0.0	-0.856	90.0	53.0	
6.0	0.0	0.0	1.0	0.0	-0.865	90.0	53.4	
7.0	0.0	0.0	1.0	0.0	-0.894	90.0	52.0	
8.0	0.0	0.0	1.0	0.0	-0.894	89.7	54.2	
9.0	0.0	0.0	1.0	0.0	-0.856	90.0	53.0	
10.0	0.0	0.0	1.0	0.0	-0.865	90.2	53.0	
11.0	0.0	0.0	1.0	0.0	-0.846	90.0	53.0	
12.0	0.0	0.0	1.0	0.0	-0.856	89.7	53.7	
13.0	0.0	0.0	1.0	0.0	-0.865	90.0	53.0	
14.0	0.0	0.0	1.0	0.0	-0.885	90.2	53.2	
15.0	0.0	0.0	1.0	0.0	-0.856	90.0	53.0	
0.0	0.0	0.0	1.0	0.0	-0.827	89.7	53.7	
1.0	0.0	0.0	1.0	0.0	-0.952	90.0	53.0	
2.0	0.0	0.0	1.0	0.0	-0.952	90.0	53.4	
3.0	0.0	0.0	1.0	0.0	-0.827	89.7	52.2	
4.0	0.0	0.0	1.0	0.0	-0.837	89.7	53.2	
5.0	0.0	0.0	1.0	0.0	-0.865	90.0	53.0	
6.0	0.0	0.0	1.0	0.0	-0.875	90.0	53.2	
7.0	0.0	0.0	1.0	0.0	-0.894	89.7	53.2	
8.0	0.0	0.0	1.0	0.0	-0.885	89.7	53.2	
9.0	0.0	0.0	1.0	0.0	-0.856	90.0	53.0	
10.0	0.0	0.0	1.0	0.0	-0.875	90.0	53.0	
11.0	0.0	0.0	1.0	0.0	-0.894	90.0	52.2	
12.0	0.0	0.0	1.0	0.0	-0.875	89.7	53.0	
13.0	0.0	0.0	1.0	0.0	-0.856	90.0	53.0	
14.0	0.0	0.0	1.0	0.0	-0.865	90.0	53.0	
15.0	0.0	0.0	1.0	0.0	-0.856	90.0	52.7	
0.0	0.0	0.0	1.0	0.0	-0.875	89.7	52.7	
1.0	0.0	0.0	1.0	0.0	-0.865	90.2	53.0	
2.0	0.0	0.0	1.0	0.0	-0.865	90.0	53.0	
3.0	0.0	0.0	1.0	0.0	-0.865	90.2	52.4	
4.0	0.0	0.0	1.0	0.0	-0.856	89.7	52.7	
5.0	0.0	0.0	1.0	0.0	-0.904	90.4	53.0	
6.0	0.0	0.0	1.0	0.0	-0.885	90.0	53.0	
7.0	0.0	0.0	1.0	0.0	-0.846	90.0	53.4	
8.0	0.0	0.0	1.0	0.0	-0.817	90.0	52.2	
9.0	0.0	0.0	1.0	0.0	-0.856	91.0	53.0	
10.0	0.0	0.0	1.0	0.0	-0.865	90.0	53.2	
11.0	0.0	0.0	1.0	0.0	-0.885	90.0	52.0	
12.0	0.0	0.0	1.0	0.0	-0.885	90.0	52.7	
13.0	0.0	0.0	1.0	0.0	-0.913	91.0	53.0	
14.0	0.0	0.0	1.0	0.0	-0.904	90.0	53.2	
15.0	0.0	0.0	1.0	0.0	-0.865	90.2	52.7	
0.0	0.0	0.0	1.0	0.0	-0.865	90.0	52.7	
1.0	0.0	0.0	1.0	0.0	-0.846	90.7	53.0	
2.0	0.0	0.0	1.0	0.0	-0.788	90.0	53.0	
3.0	0.0	0.0	1.0	0.0	-0.808	90.0	53.2	
4.0	0.0	0.0	1.0	0.0	-0.942	89.7	52.4	
5.0	0.0	0.0	1.0	0.0	-0.885	90.7	53.0	
6.0	0.0	0.0	1.0	0.0	-0.865	90.0	53.0	
7.0	0.0	0.0	1.0	0.0	-0.913	90.2	53.2	
8.0	0.0	0.0	1.0	0.0	-0.846	89.7	52.2	
9.0	0.0	0.0	1.0	0.0	-0.827	90.2	53.0	
10.0	0.0	0.0	1.0	0.0	-0.856	90.0	53.0	
11.0	0.0	0.0	1.0	0.0	-0.846	90.2	53.2	
12.0	0.0	0.0	1.0	0.0	-0.856	89.7	52.2	
13.0	0.0	0.0	1.0	0.0	-0.856	90.0	53.0	
14.0	0.0	0.0	1.0	0.0	-0.846	90.0	53.2	
15.0	0.0	0.0	1.0	0.0	-0.885	90.2	53.0	
0.0	0.0	0.0	1.0	0.0	-0.865	89.7	52.4	
1.0	0.0	0.0	1.0	0.0	-0.798	90.0	53.0	
2.0	0.0	0.0	1.0	0.0	-1.048	90.0	53.0	
3.0	0.0	0.0	1.0	0.0	-0.923	90.2	53.2	
4.0	0.0	0.0	1.0	0.0	-0.846	89.7	52.7	
5.0	0.0	0.0	1.0	0.0	-0.942	90.0	53.0	
6.0	0.0	0.0	1.0	0.0	-0.712	90.0	53.0	
7.0	0.0	0.0	1.0	0.0	-1.01	90.2	53.4	
8.0	0.0	0.0	1.0	0.0	-0.913	90.0	52.4	
9.0	0.0	0.0	1.0	0.0	-0.798	90.0	53.0	
10.0	0.0	0.0	1.0	0.0	-0.837	90.0	53.0	
11.0	0.0	0.0	1.0	0.0	-0.942	90.2	53.2	
12.0	0.0	0.0	1.0	0.0	-0.856	89.7	51.2	
13.0	0.0	0.0	1.0	0.0	-0.808	89.7	53.0	
14.0	0.0	0.0	1.0	0.0	-0.875	90.0	53.0	
15.0	0.0	0.0	1.0	0.0	-0.856	90.2	53.2	
0.0	0.0	0.0	1.0	0.0	-0.856	89.7	50.7	
1.0	0.0	0.0	1.0	0.0	-0.875	90.0	53.0	
2.0	0.0	0.0	1.0	0.0	-0.885	90.0	53.0	
3.0	0.0	0.0	1.0	0.0	-0.846	90.2	53.4	
4.0	0.0	0.0	1.0	0.0	-0.875	89.2	51.0	
5.0	0.0	0.0	1.0	0.0	-0.894	90.0	53.0	
6.0	0.0	0.0	1.0	0.0	-0.904	90.0	53.0	
7.0	0.0	0.0	1.0	0.0	-0.885	90.0	53.2	
8.0	0.0	0.0	1.0	0.0	-0.865	89.0	50.7	
9.0	0.0	0.0	1.0	0.0	-0.846	89.7	53.2	
10.0	0.0	0.0	1.0	0.0	-0.837	90.0	53.0	
11.0	0.0	0.0	1.0	0.0	-0.865	90.2	53.2	
12.0	0.0	0.0	1.0	0.0	-0.865	88.7	51.7	
13.0	0.0	0.0	1.0	0.0	-0.865	89.7	53.7	
14.0	0.0	0.0	1.0	0.0	-0.885	90.0	53.0	
15.0	0.0	0.0	1.0	0.0	-0.875	90.2	53.4	
0.0	0.0	0.0	1.0	0.0	-0.856	89.0	51.4	
1.0	0.0	0.0	1.0	0.0	-0.875	89.7	54.4	
2.0	0.0	0.0	1.0	0.0	-0.875	90.0	53.0	
3.0	0.0	0.0	1.0	0.0	-0.856	90.2	53.2	
4.0	0.0	0.0	1.0	0.0	-0.846	89.2	52.0	
5.0	0.0	0.0	1.0	0.0	-0.875	89.7	54.7	
6.0	0.0	0.0	1.0	0.0	-0.875	90.0	53.0	
7.0	0.0	0.0	1.0	0.0	-0.885	90.2	53.2	
8.0	0.0	0.0	1.0	0.0	-0.865	89.7	51.7	
9.0	0.0	0.0	1.0	0.0	-0.856	89.7	54.7	
10.0	0.0	0.0	1.0	0.0	-0.865	90.0	53.0	
11.0	0.0	0.0	1.0	0.0	-0.865	90.0	53.2	
12.0	0.0	0.0	1.0	0.0	-0.865	90.0	51.7	
13.0	0.0	0.0	1.0	0.0	-0.856	89.7	54.7	
14.0	0.0	0.0	1.0	0.0	-0.885	90.0	53.0	
15.0	0.0	0.0	1.0	0.0	-0.875	90.0	53.2	
0.0	0.0	0.0	1.0	0.0	-0.875	90.0	52.0	
1.0	0.0	0.0	1.0	0.0	-0.856	90.0	54.7	
2.0	0.0	0.0	1.0	0.0	-0.856	90.0	53.0	
3.0	0.0	0.0	1.0	0.0	-0.875	90.0	53.2	
4.0	0.0	0.0	1.0	0.0	-0.865	90.0	51.7	
5.0	0.0	0.0	1.0	0.0	-0.865	89.7	54.2	
6.0	0.0	0.0	1.0	0.0	-0.865	90.0	53.0	
7.0	0.0	0.0	1.0	0.0	-0.885	90.0	53.2	
8.0	0.0	0.0	1.0	0.0	-0.865	90.0	52.4	
9.0	0.0	0.0	1.0	0.0	-0.817	89.7	54.0	
10.0	0.0	0.0	1.0	0.0	-0.894	90.0	53.0	
11.0	0.0	0.0	1.0	0.0	-0.885	90.0	53.2	
12.0	0.0	0.0	1.0	0.0	-0.856	89.7	52.2	
13.0	0.0	0.0	1.0	0.0	-0.913	89.7	54.0	
14.0	0.0	0.0	1.0	0.0	-0.885	90.0	53.0	
15.0	0.0	0.0	1.0	0.0	-0.846	90.0	53.2	
0.0	0.0	0.0	1.0	0.0	-0.875	90.0	52.0	
1.0	0.0	0.0	1.0	0.0	-0.846	89.7	53.7	
2.0	0.0	0.0	1.0	0.0	-0.885	90.0	53.0	
3.0	0.0	0.0	1.0	0.0	-0.885	90.0	53.2	
4.0	0.0	0.0	1.0	0.0	-0.856	90.0	52.7	
5.0	0.0	0.0	1.0	0.0	-0.846	89.7	53.2	
6.0	0.0	0.0	1.0	0.0	-0.875	90.0	53.0	
7.0	0.0	0.0	1.0	0.0	-0.865	90.0	53.0	
8.0	0.0	0.0	1.0	0.0	-0.875	89.7	53.2	
9.0	0.0	0.0	1.0	0.0	-0.865	89.7	53.0	
10.0	0.0	0.0	1.0	0.0	-0.875	90.0	53.0	
11.0	0.0	0.0	1.0	0.0	-0.875	90.0	53.4	
12.0	0.0	0.0	1.0	0.0	-0.856	90.0	52.2	
13.0	0.0	0.0	1.0	0.0	-0.856	89.4	53.0	
14.0	0.0	0.0	1.0	0.0	-0.875	90.0	53.0	
15.0	0.0	0.0	1.0	0.0	-0.865	90.0	53.0	
0.0	0.0	0.0	1.0	0.0	-0.875	89.7	53.2	
1.0	0.0	0.0	1.0	0.0	-0.856	89.4	52.2	
2.0	0.0	0.0	1.0	0.0	-0.875	90.2	53.0	
3.0	0.0	0.0	1.0	0.0	-0.885	90.0	53.2	
4.0	0.0	0.0	1.0	0.0	-0.875	90.0	53.0	
5.0	0.0	0.0	1.0	0.0	-0.875	90.0	52.0	
6.0	0.0	0.0	1.0	0.0	-0.885	90.4	53.0	
7.0	0.0	0.0	1.0	0.0	-0.885	90.0	53.2	
8.0	0.0	0.0	1.0	0.0	-0.875	89.7	52.2	
9.0	0.0	0.0	1.0	0.0	-0.856	89.7	52.7	
10.0	0.0	0.0	1.0	0.0	-0.894	91.0	53.0	
11.0	0.0	0.0	1.0	0.0	-0.885	90.0	53.0	
12.0	0.0	0.0	1.0	0.0	-0.856	90.2	53.2	
13.0	0.0	0.0	1.0	0.0	-0.856	89.7	52.4	
14.0	0.0	0.0	1.0	0.0	-0.875	91.0	53.0	
15.0	0.0	0.0	1.0	0.0	-0.865	90.0	53.0	
0.0	0.0	0.0	1.0	0.0	-0.865	90.2	53.0	
1.0	0.0	0.0	1.0	0.0	-0.856	90.0	52.0	
2.0	0.0	0.0	1.0	0.0	-0.865	90.7	53.0	
3.0	0.0	0.0	1.0	0.0	-0.875	90.0	53.0	
4.0	0.0	0.0	1.0	0.0	-0.856	90.2	52.7	
5.0	0.0	0.0	1.0	0.0	-0.856	90.0	52.7	
6.0	0.0	0.0	1.0	0.0	-0.885	90.4	53.0	
7.0	0.0	0.0	1.0	0.0	-0.865	90.0	53.2	
8.0	0.0	0.0	1.0	0.0	-0.865	90.0	53.4	
9.0	0.0	0.0	1.0	0.0	-0.856	90.0	52.0	
10.0	0.0	0.0	1.0	0.0	-0.875	90.2	53.0	
11.0	0.0	0.0	1.0	0.0	-0.865	90.0	53.0	
12.0	0.0	0.0	1.0	0.0	-0.865	90.2	52.4	
13.0	0.0	0.0	1.0	0.0	-0.885	90.0	53.0	
14.0	0.0	0.0	1.0	0.0	-0.865	90.0	53.0	
15.0	0.0	0.0	1.0	0.0	-0.885	90.0	53.0	
0.0	0.0	0.0	1.0	0.0	-0.865	90.0	53.2	
1.0	0.0	0.0	1.0	0.0	-0.865	89.7	52.4	
2.0	0.0	0.0	1.0	0.0	-0.865	89.7	53.0	
3.0	0.0	0.0	1.0	0.0	-0.885	90.0	53.0	
4.0	0.0	0.0	1.0	0.0	-0.865	90.0	53.4	
5.0	0.0	0.0	1.0	0.0	-0.875	89.7	52.2	
6.0	0.0	0.0	1.0	0.0	-0.856	90.0	53.0	
7.0	0.0	0.0	1.0	0.0	-0.875	90.0	53.0	
8.0	0.0	0.0	1.0	0.0	-0.856	90.2	53.2	
9.0	0.0	0.0	1.0	0.0	-0.856	89.7	52.2	
10.0	0.0	0.0	1.0	0.0	-0.875	89.7	53.0	
11.0	0.0	0.0	1.0	0.0	-0.865	90.0	53.0	
12.0	0.0	0.0	1.0	0.0	-0.808	90.2	53.4	
13.0	0.0	0.0	1.0	0.0	-1.135	89.7	51.0	
14.0	0.0	0.0	1.0	0.0	-0.923	90.0	53.0	
15.0	0.0	0.0	1.0	0.0	-0.702	90.0	53.0	
0.0	0.0	0.0	1.0	0.0	-0.74	90.0	53.2	
1.0	0.0	0.0	1.0	0.0	-0.548	89.4	51.0	
2.0	0.0	0.0	1.0	0.0	-0.798	90.0	53.0	
3.0	0.0	0.0	1.0	0.0	-1.163	90.0	53.0	
4.0	0.0	0.0	1.0	0.0	-0.865	90.0	53.2	
5.0	0.0	0.0	1.0	0.0	-0.577	89.0	50.7	
6.0	0.0	0.0	1.0	0.0	-0.923	90.0	53.0	
7.0	0.0	0.0	1.0	0.0	-1.096	89.7	53.0	
8.0	0.0	0.0	1.0	0.0	-0.529	90.0	53.2	
9.0	0.0	0.0	1.0	0.0	-0.817	88.7	51.0	
10.0	0.0	0.0	1.0	0.0	-1.058	89.4	53.2	
11.0	0.0	0.0	1.0	0.0	-0.837	90.0	53.0	
12.0	0.0	0.0	1.0	0.0	-0.894	90.0	53.2	
13.0	0.0	0.0	1.0	0.0	-1.231	88.7	51.2	
14.0	0.0	0.0	1.0	0.0	-1.048	90.0	54.0	
15.0	0.0	0.0	1.0	0.0	-0.856	90.0	53.0	
0.0	0.0	0.0	1.0	0.0	-1.298	90.0	53.4	
1.0	0.0	0.0	1.0	0.0	-1.212	89.0	51.4	
2.0	0.0	0.0	1.0	0.0	-1.077	90.0	54.4	
3.0	0.0	0.0	1.0	0.0	-1.144	90.0	53.0	
4.0	0.0	0.0	1.0	0.0	-1.288	90.0	53.2	
5.0	0.0	0.0	1.0	0.0	-1.394	89.2	51.7	
6.0	0.0	0.0	1.0	0.0	-1.5	90.0	54.7	
7.0	0.0	0.0	1.0	0.0	-1.442	90.0	53.0	
8.0	0.0	0.0	1.0	0.0	-1.423	90.2	53.2	
9.0	0.0	0.0	1.0	0.0	-1.404	90.0	51.7	
10.0	0.0	0.0	1.0	0.0	-1.519	89.7	54.7	
11.0	0.0	0.0	1.0	0.0	-1.462	90.0	53.0	
12.0	0.0	0.0	1.0	0.0	-0.856	90.0	53.2	
13.0	0.0	0.0	1.0	0.0	-0.923	90.0	52.4	
14.0	0.0	0.0	1.0	0.0	-0.673	89.7	54.4	
15.0	0.0	0.0	1.0	0.0	-0.587	90.0	53.0	
0.0	0.0	0.0	1.0	0.0	-0.404	90.0	53.2	
1.0	0.0	0.0	1.0	0.0	-0.221	90.0	52.0	
2.0	0.0	0.0	1.0	0.0	-0.202	90.0	54.4	
3.0	0.0	0.0	1.0	0.0	-0.029	90.0	53.0	
4.0	0.0	0.0	1.0	0.0	-0.01	90.0	53.2	
5.0	0.0	0.0	1.0	0.0	0.058	89.7	52.4	
6.0	0.0	0.0	1.0	0.0	0.144	89.7	54.2	
7.0	0.0	0.0	1.0	0.0	0.192	90.0	53.0	
8.0	0.0	0.0	1.0	0.0	0.26	90.0	53.2	
9.0	0.0	0.0	1.0	0.0	0.202	90.2	52.2	
10.0	0.0	0.0	1.0	0.0	0.125	89.7	54.0	
11.0	0.0	0.0	1.0	0.0	-0.077	90.0	53.0	
12.0	0.0	0.0	1.0	0.0	-0.144	90.0	53.2	
13.0	0.0	0.0	1.0	0.0	-0.356	89.4	52.0	
14.0	0.0	0.0	1.0	0.0	-0.529	89.7	53.7	
15.0	0.0	0.0	1.0	0.0	-0.76	90.0	53.0	
0.0	0.0	0.0	1.0	0.0	-0.923	90.0	53.2	
1.0	0.0	0.0	1.0	0.0	-1.135	89.7	52.0	
2.0	0.0	0.0	1.0	0.0	-1.413	89.7	53.4	
3.0	0.0	0.0	1.0	0.0	-1.606	90.0	53.0	
4.0	0.0	0.0	1.0	0.0	-1.894	90.0	53.2	
5.0	0.0	0.0	1.0	0.0	-1.923	89.7	53.0	
6.0	0.0	0.0	1.0	0.0	-1.99	89.7	53.0	
7.0	0.0	0.0	1.0	0.0	-1.962	90.0	53.0	
8.0	0.0	0.0	1.0	0.0	-1.654	90.0	53.2	
9.0	0.0	0.0	1.0	0.0	-1.413	89.7	52.4	
10.0	0.0	0.0	1.0	0.0	-1.231	89.7	52.7	
11.0	0.0	0.0	1.0	0.0	-1.048	90.0	53.0	
12.0	0.0	0.0	1.0	0.0	-0.875	90.0	53.2	
13.0	0.0	0.0	1.0	0.0	-0.865	90.0	52.0	
14.0	0.0	0.0	1.0	0.0	-0.76	89.7	52.7	
15.0	0.0	0.0	1.0	0.0	-0.692	90.0	53.0	
0.0	0.0	0.0	1.0	0.0	-0.49	90.0	53.2	
1.0	0.0	0.0	1.0	0.0	-0.269	89.7	52.0	
2.0	0.0	0.0	1.0	0.0	-0.269	89.7	52.7	
3.0	0.0	0.0	1.0	0.0	-0.183	90.2	53.0	
4.0	0.0	0.0	1.0	0.0	-0.26	90.0	53.0	
5.0	0.0	0.0	1.0	0.0	-0.183	90.0	53.0	
6.0	0.0	0.0	1.0	0.0	-0.298	89.4	52.0	
7.0	0.0	0.0	1.0	0.0	-0.365	90.7	53.0	
8.0	0.0	0.0	1.0	0.0	-0.394	90.0	53.0	
9.0	0.0	0.0	1.0	0.0	-0.462	90.0	53.0	
10.0	0.0	0.0	1.0	0.0	-0.51	89.7	52.4	
11.0	0.0	0.0	1.0	0.0	-0.51	91.0	53.0	
12.0	0.0	0.0	1.0	0.0	-0.471	90.0	53.0	
13.0	0.0	0.0	1.0	0.0	-0.462	90.2	53.0	
14.0	0.0	0.0	1.0	0.0	-0.481	89.7	52.2	
15.0	0.0	0.0	1.0	0.0	-0.471	91.0	53.0	
0.0	0.0	0.0	1.0	0.0	-0.385	90.0	53.0	
1.0	0.0	0.0	1.0	0.0	-0.365	90.0	52.2	
2.0	0.0	0.0	1.0	0.0	-0.375	89.7	52.4	
3.0	0.0	0.0	1.0	0.0	-0.375	90.4	52.7	
4.0	0.0	0.0	1.0	0.0	-0.317	90.0	53.2	
5.0	0.0	0.0	1.0	0.0	-0.212	90.2	52.2	
6.0	0.0	0.0	1.0	0.0	-0.144	89.7	52.4	
7.0	0.0	0.0	1.0	0.0	-0.125	90.4	53.0	
8.0	0.0	0.0	1.0	0.0	-0.115	90.0	53.0	
9.0	0.0	0.0	1.0	0.0	-0.048	90.0	53.0	
10.0	0.0	0.0	1.0	0.0	-0.029	89.7	52.2	
11.0	0.0	0.0	1.0	0.0	0.038	90.2	53.0	
12.0	0.0	0.0	1.0	0.0	0.115	90.0	53.0	
13.0	0.0	0.0	1.0	0.0	0.067	90.0	53.2	
14.0	0.0	0.0	1.0	0.0	0.096	89.7	52.4	
15.0	0.0	0.0	1.0	0.0	0.231	90.0	52.7	
0.0	0.0	0.0	1.0	0.0	0.279	90.0	53.0	
1.0	0.0	0.0	1.0	0.0	0.298	90.0	53.2	
2.0	0.0	0.0	1.0	0.0	0.173	89.7	52.2	
3.0	0.0	0.0	1.0	0.0	0.202	90.0	53.0	
4.0	0.0	0.0	1.0	0.0	0.24	90.0	53.0	
5.0	0.0	0.0	1.0	0.0	0.365	90.0	53.2	
6.0	0.0	0.0	1.0	0.0	0.385	89.7	52.4	
7.0	0.0	0.0	1.0	0.0	0.298	90.0	53.0	
8.0	0.0	0.0	1.0	0.0	0.308	90.0	53.0	
9.0	0.0	0.0	1.0	0.0	0.337	90.0	53.2	
10.0	0.0	0.0	1.0	0.0	0.356	90.0	52.0	
11.0	0.0	0.0	1.0	0.0	0.317	90.0	53.0	
12.0	0.0	0.0	1.0	0.0	0.308	90.0	53.0	
13.0	0.0	0.0	1.0	0.0	0.317	90.2	53.2	
14.0	0.0	0.0	1.0	0.0	0.269	89.4	51.2	
15.0	0.0	0.0	1.0	0.0	0.115	89.4	52.7	
0.0	0.0	0.0	1.0	0.0	0.183	90.0	53.0	
1.0	0.0	0.0	1.0	0.0	0.096	90.0	53.2	
2.0	0.0	0.0	1.0	0.0	-0.029	89.4	50.7	
3.0	0.0	0.0	1.0	0.0	-0.115	90.0	53.0	
4.0	0.0	0.0	1.0	0.0	-0.24	90.0	53.0	
5.0	0.0	0.0	1.0	0.0	-0.346	90.0	53.2	
6.0	0.0	0.0	1.0	0.0	-0.423	89.0	50.4	
7.0	0.0	0.0	1.0	0.0	-0.423	90.0	53.0	
8.0	0.0	0.0	1.0	0.0	-0.5	90.0	53.0	
9.0	0.0	0.0	1.0	0.0	-0.606	90.0	53.2	
10.0	0.0	0.0	1.0	0.0	-0.615	88.7	51.2	
11.0	0.0	0.0	1.0	0.0	-0.692	90.0	53.4	
12.0	0.0	0.0	1.0	0.0	-0.731	89.7	53.0	
13.0	0.0	0.0	1.0	0.0	-0.827	90.0	53.2	
14.0	0.0	0.0	1.0	0.0	-0.856	88.7	51.0	
15.0	0.0	0.0	1.0	0.0	-0.856	90.0	54.0	
0.0	0.0	0.0	1.0	0.0	-0.885	89.7	53.0	
1.0	0.0	0.0	1.0	0.0	-0.808	90.2	53.2	
2.0	0.0	0.0	1.0	0.0	-0.635	89.0	52.2	
3.0	0.0	0.0	1.0	0.0	-0.663	90.0	54.4	
4.0	0.0	0.0	1.0	0.0	-0.788	90.0	53.0	
5.0	0.0	0.0	1.0	0.0	-0.798	90.2	53.2	
6.0	0.0	0.0	1.0	0.0	-0.615	89.4	52.0	
7.0	0.0	0.0	1.0	0.0	-0.519	89.4	54.7	
8.0	0.0	0.0	1.0	0.0	-0.721	90.0	53.0	
9.0	0.0	0.0	1.0	0.0	-0.692	90.2	53.0	
10.0	0.0	0.0	1.0	0.0	-0.74	89.7	52.0	
11.0	0.0	0.0	1.0	0.0	-0.769	89.4	54.7	
12.0	0.0	0.0	1.0	0.0	-0.673	90.0	53.0	
13.0	0.0	0.0	1.0	0.0	-0.567	90.2	53.2	
14.0	0.0	0.0	1.0	0.0	-0.423	90.2	52.0	
15.0	0.0	0.0	1.0	0.0	-0.327	89.7	54.4	
0.0	0.0	0.0	1.0	0.0	-0.231	90.0	53.0	
1.0	0.0	0.0	1.0	0.0	-0.106	90.0	53.0	
2.0	0.0	0.0	1.0	0.0	0.019	90.0	52.0	
3.0	0.0	0.0	1.0	0.0	0.077	89.4	54.4	
4.0	0.0	0.0	1.0	0.0	0.058	90.0	52.7	
5.0	0.0	0.0	1.0	0.0	0.067	90.0	53.2	
6.0	0.0	0.0	1.0	0.0	0.077	89.7	52.0	
7.0	0.0	0.0	1.0	0.0	0.135	89.7	54.2	
8.0	0.0	0.0	1.0	0.0	0.212	89.7	52.7	
9.0	0.0	0.0	1.0	0.0	0.144	90.0	53.0	
10.0	0.0	0.0	1.0	0.0	-0.125	90.0	52.0	
11.0	0.0	0.0	1.0	0.0	-0.154	89.7	54.0	
12.0	0.0	0.0	1.0	0.0	-0.231	90.0	53.0	
13.0	0.0	0.0	1.0	0.0	-0.433	90.0	53.4	
14.0	0.0	0.0	1.0	0.0	-0.25	90.0	52.0	
15.0	0.0	0.0	1.0	0.0	-0.433	89.4	53.4	
0.0	0.0	0.0	1.0	0.0	-0.663	90.0	53.0	
1.0	0.0	0.0	1.0	0.0	-0.615	90.0	53.2	
2.0	0.0	0.0	1.0	0.0	-0.654	89.7	52.0	
3.0	0.0	0.0	1.0	0.0	-0.663	89.7	53.4	
4.0	0.0	0.0	1.0	0.0	-0.587	89.7	53.0	
5.0	0.0	0.0	1.0	0.0	-0.529	90.0	53.2	
6.0	0.0	0.0	1.0	0.0	-0.356	90.0	52.2	
7.0	0.0	0.0	1.0	0.0	-0.394	89.7	53.0	
8.0	0.0	0.0	1.0	0.0	-0.346	90.0	53.0	
9.0	0.0	0.0	1.0	0.0	-0.317	90.0	53.2	
10.0	0.0	0.0	1.0	0.0	-0.365	89.4	52.2	
11.0	0.0	0.0	1.0	0.0	-0.433	89.7	53.0	
12.0	0.0	0.0	1.0	0.0	-0.462	90.0	53.0	
13.0	0.0	0.0	1.0	0.0	-0.51	90.0	53.2	
14.0	0.0	0.0	1.0	0.0	-0.538	89.7	53.0	
15.0	0.0	0.0	1.0	0.0	-0.49	89.7	52.2	
0.0	0.0	0.0	1.0	0.0	-0.51	90.0	53.0	
1.0	0.0	0.0	1.0	0.0	-0.673	90.0	53.0	
2.0	0.0	0.0	1.0	0.0	-0.269	90.0	53.2	
3.0	0.0	0.0	1.0	0.0	-0.212	89.4	52.2	
4.0	0.0	0.0	1.0	0.0	0.01	90.2	52.7	
5.0	0.0	0.0	1.0	0.0	-0.096	90.0	53.0	
6.0	0.0	0.0	1.0	0.0	-0.269	90.0	53.0	
7.0	0.0	0.0	1.0	0.0	-0.548	89.4	52.4	
8.0	0.0	0.0	1.0	0.0	-0.74	90.7	52.7	
9.0	0.0	0.0	1.0	0.0	-0.913	90.0	53.0	
10.0	0.0	0.0	1.0	0.0	-1.163	90.0	53.0	
11.0	0.0	0.0	1.0	0.0	-1.606	90.0	52.2	
12.0	0.0	0.0	1.0	0.0	-2.087	91.0	53.0	
13.0	0.0	0.0	1.0	0.0	-2.279	90.0	53.0	
14.0	0.0	0.0	1.0	0.0	-2.106	90.2	52.0	
15.0	0.0	0.0	1.0	0.0	-1.702	89.7	52.7	
0.0	0.0	0.0	1.0	0.0	-1.308	91.0	53.0	
1.0	0.0	0.0	1.0	0.0	-1.019	90.0	53.0	
2.0	0.0	0.0	1.0	0.0	-0.76	90.0	52.7	
3.0	0.0	0.0	1.0	0.0	-0.394	89.7	52.4	
4.0	0.0	0.0	1.0	0.0	0.01	90.7	52.7	
5.0	0.0	0.0	1.0	0.0	0.375	90.0	53.0	
6.0	0.0	0.0	1.0	0.0	0.731	90.0	53.0	
7.0	0.0	0.0	1.0	0.0	0.971	89.2	52.2	
8.0	0.0	0.0	1.0	0.0	0.75	90.2	53.0	
9.0	0.0	0.0	1.0	0.0	0.462	90.0	53.0	
10.0	0.0	0.0	1.0	0.0	0.077	90.0	53.0	
11.0	0.0	0.0	1.0	0.0	-0.577	89.7	52.4	
12.0	0.0	0.0	1.0	0.0	-1.51	90.2	53.0	
13.0	0.0	0.0	1.0	0.0	-2.202	90.0	53.0	
14.0	0.0	0.0	1.0	0.0	-2.51	90.2	53.0	
15.0	0.0	0.0	1.0	0.0	-2.577	90.0	52.4	
0.0	0.0	0.0	1.0	0.0	-2.154	90.0	52.7	
1.0	0.0	0.0	1.0	0.0	-1.654	90.0	53.0	
2.0	0.0	0.0	1.0	0.0	-1.548	90.2	53.2	
3.0	0.0	0.0	1.0	0.0	-1.75	89.7	52.7	
4.0	0.0	0.0	1.0	0.0	-1.481	89.7	53.0	
5.0	0.0	0.0	1.0	0.0	-0.962	90.0	53.0	
6.0	0.0	0.0	1.0	0.0	-0.51	90.0	53.2	
7.0	0.0	0.0	1.0	0.0	0.038	89.4	52.0	
8.0	0.0	0.0	1.0	0.0	0.452	90.0	53.0	
9.0	0.0	0.0	1.0	0.0	0.837	90.0	53.0	
10.0	0.0	0.0	1.0	0.0	0.962	90.0	53.2	
11.0	0.0	0.0	1.0	0.0	0.731	89.7	51.4	
12.0	0.0	0.0	1.0	0.0	0.279	90.0	53.0	
13.0	0.0	0.0	1.0	0.0	-0.154	90.0	53.0	
14.0	0.0	0.0	1.0	0.0	-0.702	90.0	53.2	
15.0	0.0	0.0	1.0	0.0	-1.288	90.0	51.2	
0.0	0.0	0.0	1.0	0.0	-1.788	90.0	52.7	
1.0	0.0	0.0	1.0	0.0	-2.01	90.0	53.0	
2.0	0.0	0.0	1.0	0.0	-2.01	90.0	53.2	
3.0	0.0	0.0	1.0	0.0	-1.779	89.4	50.7	
4.0	0.0	0.0	1.0	0.0	-1.923	89.7	53.0	
5.0	0.0	0.0	1.0	0.0	-1.913	90.0	53.0	
6.0	0.0	0.0	1.0	0.0	-1.817	90.0	53.2	
7.0	0.0	0.0	1.0	0.0	-1.49	89.0	50.7	
8.0	0.0	0.0	1.0	0.0	-1.077	89.7	53.0	
9.0	0.0	0.0	1.0	0.0	-0.673	90.0	53.0	
10.0	0.0	0.0	1.0	0.0	-0.375	90.0	53.2	
11.0	0.0	0.0	1.0	0.0	-0.269	88.7	51.0	
12.0	0.0	0.0	1.0	0.0	-0.144	89.7	53.4	
13.0	0.0	0.0	1.0	0.0	-0.058	90.0	53.0	
14.0	0.0	0.0	1.0	0.0	0.163	90.2	53.2	
15.0	0.0	0.0	1.0	0.0	0.24	88.7	51.2	
0.0	0.0	0.0	1.0	0.0	0.288	89.4	54.2	
1.0	0.0	0.0	1.0	0.0	0.298	89.7	52.7	
2.0	0.0	0.0	1.0	0.0	0.163	90.2	53.2	
3.0	0.0	0.0	1.0	0.0	-0.212	89.0	51.7	
4.0	0.0	0.0	1.0	0.0	-0.692	89.7	54.4	
5.0	0.0	0.0	1.0	0.0	-1.144	90.0	53.0	
6.0	0.0	0.0	1.0	0.0	-1.433	90.2	53.0	
7.0	0.0	0.0	1.0	0.0	-1.721	89.4	52.0	
8.0	0.0	0.0	1.0	0.0	-1.827	89.7	54.7	
9.0	0.0	0.0	1.0	0.0	-1.75	90.0	52.7	
10.0	0.0	0.0	1.0	0.0	-1.587	90.0	53.2	
11.0	0.0	0.0	1.0	0.0	-1.404	90.0	51.7	
12.0	0.0	0.0	1.0	0.0	-1.269	89.7	54.4	
13.0	0.0	0.0	1.0	0.0	-1.144	90.0	53.0	
14.0	0.0	0.0	1.0	0.0	-1.029	90.0	53.4	
15.0	0.0	0.0	1.0	0.0	-0.923	90.0	52.0	
0.0	0.0	0.0	1.0	0.0	-0.817	90.0	54.4	
1.0	0.0	0.0	1.0	0.0	-0.692	90.0	53.0	
2.0	0.0	0.0	1.0	0.0	-0.606	90.0	53.2	
3.0	0.0	0.0	1.0	0.0	-0.596	90.0	51.7	
4.0	0.0	0.0	1.0	0.0	-0.673	89.7	54.2	
5.0	0.0	0.0	1.0	0.0	-0.798	90.0	53.0	
6.0	0.0	0.0	1.0	0.0	-0.875	90.2	53.2	
7.0	0.0	0.0	1.0	0.0	-0.894	90.0	51.7	
8.0	0.0	0.0	1.0	0.0	-0.962	89.7	54.0	
9.0	0.0	0.0	1.0	0.0	-0.962	90.0	53.0	
10.0	0.0	0.0	1.0	0.0	-1.0	90.0	53.0	
11.0	0.0	0.0	1.0	0.0	-0.99	89.7	53.0	
12.0	0.0	0.0	1.0	0.0	-0.99	89.7	53.7	
13.0	0.0	0.0	1.0	0.0	-0.923	90.0	53.0	
14.0	0.0	0.0	1.0	0.0	-0.894	90.0	53.0	
15.0	0.0	0.0	1.0	0.0	-0.856	90.0	53.0	
0.0	0.0	0.0	1.0	0.0	-0.846	89.7	53.4	
1.0	0.0	0.0	1.0	0.0	-0.808	90.0	53.0	
2.0	0.0	0.0	1.0	0.0	-0.779	90.0	53.0	
3.0	0.0	0.0	1.0	0.0	-0.808	89.7	52.7	
4.0	0.0	0.0	1.0	0.0	-0.827	89.7	53.2	
5.0	0.0	0.0	1.0	0.0	-0.856	90.0	52.7	
6.0	0.0	0.0	1.0	0.0	-0.913	90.0	53.0	
7.0	0.0	0.0	1.0	0.0	-0.865	89.7	53.2	
8.0	0.0	0.0	1.0	0.0	-0.856	89.4	53.0	
9.0	0.0	0.0	1.0	0.0	-0.865	89.7	53.0	
10.0	0.0	0.0	1.0	0.0	-0.875	90.0	53.2	
11.0	0.0	0.0	1.0	0.0	-0.846	89.7	52.4	
12.0	0.0	0.0	1.0	0.0	-0.827	89.4	53.0	
13.0	0.0	0.0	1.0	0.0	-0.808	90.0	53.0	
14.0	0.0	0.0	1.0	0.0	-0.779	90.0	53.2	
15.0	0.0	0.0	1.0	0.0	-0.779	89.7	52.0	
0.0	0.0	0.0	1.0	0.0	-0.788	89.4	52.7	
1.0	0.0	0.0	1.0	0.0	-0.981	90.0	53.0	
2.0	0.0	0.0	1.0	0.0	-1.452	90.0	53.0	
3.0	0.0	0.0	1.0	0.0	-1.654	90.2	53.0	
4.0	0.0	0.0	1.0	0.0	-1.096	89.7	52.4	
5.0	0.0	0.0	1.0	0.0	-0.106	90.4	53.0	
6.0	0.0	0.0	1.0	0.0	0.221	90.0	53.0	
7.0	0.0	0.0	1.0	0.0	-0.423	90.2	52.4	
8.0	0.0	0.0	1.0	0.0	-1.462	89.7	52.7	
9.0	0.0	0.0	1.0	0.0	-1.01	90.7	53.0	
10.0	0.0	0.0	1.0	0.0	-0.721	90.0	53.2	
11.0	0.0	0.0	1.0	0.0	-0.798	90.0	53.0	
12.0	0.0	0.0	1.0	0.0	-1.192	89.7	51.7	
13.0	0.0	0.0	1.0	0.0	-0.635	91.0	53.0	
14.0	0.0	0.0	1.0	0.0	-0.933	90.0	53.0	
15.0	0.0	0.0	1.0	0.0	-0.865	90.2	53.0	
0.0	0.0	0.0	1.0	0.0	-0.808	89.7	52.4	
1.0	0.0	0.0	1.0	0.0	-0.596	90.7	53.0	
2.0	0.0	0.0	1.0	0.0	-0.817	90.0	53.0	
3.0	0.0	0.0	1.0	0.0	-0.692	90.0	53.0	
4.0	0.0	0.0	1.0	0.0	-0.423	89.7	52.7	
5.0	0.0	0.0	1.0	0.0	-0.625	90.7	53.0	
6.0	0.0	0.0	1.0	0.0	-0.885	90.0	53.0	
7.0	0.0	0.0	1.0	0.0	-0.462	90.0	53.0	
8.0	0.0	0.0	1.0	0.0	-0.548	89.7	52.7	
9.0	0.0	0.0	1.0	0.0	-0.798	90.2	53.0	
10.0	0.0	0.0	1.0	0.0	-0.846	90.0	53.0	
11.0	0.0	0.0	1.0	0.0	-0.875	90.0	53.0	
12.0	0.0	0.0	1.0	0.0	-0.933	90.0	52.0	
13.0	0.0	0.0	1.0	0.0	-0.865	90.2	53.0	
14.0	0.0	0.0	1.0	0.0	-0.923	90.0	53.0	
15.0	0.0	0.0	1.0	0.0	-0.904	90.0	53.2	
0.0	0.0	0.0	1.0	0.0	-0.885	89.7	52.0	
1.0	0.0	0.0	1.0	0.0	-0.75	89.7	53.0	
2.0	0.0	0.0	1.0	0.0	-0.74	90.0	53.0	
3.0	0.0	0.0	1.0	0.0	-0.856	90.0	53.2	
4.0	0.0	0.0	1.0	0.0	-0.885	90.0	52.2	
5.0	0.0	0.0	1.0	0.0	-0.885	90.0	53.0	
6.0	0.0	0.0	1.0	0.0	-0.913	90.0	53.0	
7.0	0.0	0.0	1.0	0.0	-0.904	90.2	53.2	
8.0	0.0	0.0	1.0	0.0	-0.913	90.0	52.2	
9.0	0.0	0.0	1.0	0.0	-0.865	90.0	53.0	
10.0	0.0	0.0	1.0	0.0	-0.856	90.0	53.0	
11.0	0.0	0.0	1.0	0.0	-0.875	90.2	53.2	
12.0	0.0	0.0	1.0	0.0	-0.865	90.0	51.2	
13.0	0.0	0.0	1.0	0.0	-0.846	90.0	53.0	
14.0	0.0	0.0	1.0	0.0	-0.875	90.0	53.0	
15.0	0.0	0.0	1.0	0.0	-0.885	90.0	53.2	
0.0	0.0	0.0	1.0	0.0	-0.875	89.7	50.7	
1.0	0.0	0.0	1.0	0.0	-0.846	89.7	53.0	
2.0	0.0	0.0	1.0	0.0	-0.865	90.0	53.0	
3.0	0.0	0.0	1.0	0.0	-0.856	90.2	53.4	
4.0	0.0	0.0	1.0	0.0	-0.856	89.2	50.7	
5.0	0.0	0.0	1.0	0.0	-0.865	89.7	53.0	
6.0	0.0	0.0	1.0	0.0	-0.885	90.0	53.0	
7.0	0.0	0.0	1.0	0.0	-0.904	90.0	53.2	
8.0	0.0	0.0	1.0	0.0	-0.875	88.7	50.7	
9.0	0.0	0.0	1.0	0.0	-0.846	89.7	53.0	
10.0	0.0	0.0	1.0	0.0	-0.875	90.0	53.0	
11.0	0.0	0.0	1.0	0.0	-0.846	90.2	53.2	
12.0	0.0	0.0	1.0	0.0	-0.856	88.7	51.0	
13.0	0.0	0.0	1.0	0.0	-0.846	89.7	53.7	
14.0	0.0	0.0	1.0	0.0	-0.885	90.0	53.0	
15.0	0.0	0.0	1.0	0.0	-0.885	90.0	53.4	
0.0	0.0	0.0	1.0	0.0	-0.885	89.0	51.4	
1.0	0.0	0.0	1.0	0.0	-0.875	89.7	54.2	
2.0	0.0	0.0	1.0	0.0	-0.856	90.0	53.0	
3.0	0.0	0.0	1.0	0.0	-0.856	90.0	53.2	
4.0	0.0	0.0	1.0	0.0	-0.885	89.0	51.7	
5.0	0.0	0.0	1.0	0.0	-0.856	90.0	54.4	
6.0	0.0	0.0	1.0	0.0	-0.865	90.0	53.0	
7.0	0.0	0.0	1.0	0.0	-0.894	90.0	53.0	
8.0	0.0	0.0	1.0	0.0	-0.885	89.4	52.2	
9.0	0.0	0.0	1.0	0.0	-0.846	90.0	54.7	
10.0	0.0	0.0	1.0	0.0	-0.837	90.0	53.0	
11.0	0.0	0.0	1.0	0.0	-0.856	90.0	53.2	
12.0	0.0	0.0	1.0	0.0	-0.875	89.7	52.0	
13.0	0.0	0.0	1.0	0.0	-0.865	89.7	54.7	
14.0	0.0	0.0	1.0	0.0	-0.865	90.0	53.0	
15.0	0.0	0.0	1.0	0.0	-0.885	90.2	53.2	
0.0	0.0	0.0	1.0	0.0	-0.885	90.0	51.7	
1.0	0.0	0.0	1.0	0.0	-0.865	90.0	54.4	
2.0	0.0	0.0	1.0	0.0	-0.865	90.0	53.0	
3.0	0.0	0.0	1.0	0.0	-0.865	90.0	53.2	
4.0	0.0	0.0	1.0	0.0	-0.856	90.0	52.0	
5.0	0.0	0.0	1.0	0.0	-0.865	89.7	54.2	
6.0	0.0	0.0	1.0	0.0	-0.856	89.7	53.0	
7.0	0.0	0.0	1.0	0.0	-0.856	90.2	53.4	
8.0	0.0	0.0	1.0	0.0	-0.875	90.0	52.0	
9.0	0.0	0.0	1.0	0.0	-0.875	89.7	54.2	
10.0	0.0	0.0	1.0	0.0	-0.875	90.0	53.0	
11.0	0.0	0.0	1.0	0.0	-0.865	90.0	53.4	
12.0	0.0	0.0	1.0	0.0	-0.894	89.7	52.0	
13.0	0.0	0.0	1.0	0.0	-0.865	89.7	54.0	
14.0	0.0	0.0	1.0	0.0	-0.875	90.0	53.0	
15.0	0.0	0.0	1.0	0.0	-0.885	90.0	53.0	
0.0	0.0	0.0	1.0	0.0	-0.856	89.7	52.7	
1.0	0.0	0.0	1.0	0.0	-0.846	89.7	53.2	
2.0	0.0	0.0	1.0	0.0	-0.865	90.0	53.0	
3.0	0.0	0.0	1.0	0.0	-0.875	89.7	53.0	
4.0	0.0	0.0	1.0	0.0	-0.856	89.7	52.0	
5.0	0.0	0.0	1.0	0.0	-0.865	89.4	53.2	
6.0	0.0	0.0	1.0	0.0	-0.875	90.0	53.0	
7.0	0.0	0.0	1.0	0.0	-0.875	90.0	53.0	
8.0	0.0	0.0	1.0	0.0	-0.865	90.0	53.2	
9.0	0.0	0.0	1.0	0.0	-0.865	89.7	53.0	
10.0	0.0	0.0	1.0	0.0	-0.865	90.0	53.0	
11.0	0.0	0.0	1.0	0.0	-0.865	90.0	53.2	
12.0	0.0	0.0	1.0	0.0	-0.865	89.7	53.2	
13.0	0.0	0.0	1.0	0.0	-0.865	89.7	52.7	
14.0	0.0	0.0	1.0	0.0	-0.875	90.0	53.0	
15.0	0.0	0.0	1.0	0.0	-0.856	90.0	53.2	
0.0	0.0	0.0	1.0	0.0	-0.875	90.2	53.2	
1.0	0.0	0.0	1.0	0.0	-0.875	89.4	52.4	
2.0	0.0	0.0	1.0	0.0	-0.875	90.2	53.0	
3.0	0.0	0.0	1.0	0.0	-0.875	90.0	53.2	
4.0	0.0	0.0	1.0	0.0	-0.875	90.2	52.0	
5.0	0.0	0.0	1.0	0.0	-0.865	89.7	52.0	
6.0	0.0	0.0	1.0	0.0	-0.865	90.4	53.0	
7.0	0.0	0.0	1.0	0.0	-0.865	90.0	53.0	
8.0	0.0	0.0	1.0	0.0	-0.865	90.2	52.0	
9.0	0.0	0.0	1.0	0.0	-0.865	89.4	52.0	
10.0	0.0	0.0	1.0	0.0	-0.856	91.0	53.0	
11.0	0.0	0.0	1.0	0.0	-0.875	90.0	53.0	
12.0	0.0	0.0	1.0	0.0	-0.865	90.2	53.2	
13.0	0.0	0.0	1.0	0.0	-0.865	89.7	52.2	
14.0	0.0	0.0	1.0	0.0	-0.875	91.0	53.0	
15.0	0.0	0.0	1.0	0.0	-0.856	90.0	53.2	
0.0	0.0	0.0	1.0	0.0	-0.875	90.2	53.0	
1.0	0.0	0.0	1.0	0.0	-0.875	89.7	52.7	
2.0	0.0	0.0	1.0	0.0	-0.875	90.7	53.0	
3.0	0.0	0.0	1.0	0.0	-0.865	90.0	53.2	
4.0	0.0	0.0	1.0	0.0	-0.865	90.0	52.4	
5.0	0.0	0.0	1.0	0.0	-0.865	89.7	52.7	
6.0	0.0	0.0	1.0	0.0	-0.865	90.4	52.7	
7.0	0.0	0.0	1.0	0.0	-0.865	90.0	53.0	
8.0	0.0	0.0	1.0	0.0	-0.856	90.0	53.0	
9.0	0.0	0.0	1.0	0.0	-0.856	89.7	52.4	
10.0	0.0	0.0	1.0	0.0	-0.875	90.2	53.0	
11.0	0.0	0.0	1.0	0.0	-0.865	90.0	53.0	
12.0	0.0	0.0	1.0	0.0	-0.856	90.0	53.0	
13.0	0.0	0.0	1.0	0.0	-0.865	89.7	52.2	
14.0	0.0	0.0	1.0	0.0	-0.865	90.0	53.0	
15.0	0.0	0.0	1.0	0.0	-0.875	89.7	53.0	
0.0	0.0	0.0	1.0	0.0	-0.885	90.0	53.2	
1.0	0.0	0.0	1.0	0.0	-0.856	90.0	52.2	
2.0	0.0	0.0	1.0	0.0	-0.865	90.0	53.0	
3.0	0.0	0.0	1.0	0.0	-0.875	90.0	53.0	
4.0	0.0	0.0	1.0	0.0	-0.856	90.2	53.2	
5.0	0.0	0.0	1.0	0.0	-0.856	89.7	52.2	
6.0	0.0	0.0	1.0	0.0	-0.865	89.7	53.0	
7.0	0.0	0.0	1.0	0.0	-0.875	90.0	53.0	
8.0	0.0	0.0	1.0	0.0	-0.865	90.0	53.4	
9.0	0.0	0.0	1.0	0.0	-0.856	89.7	52.0	
10.0	0.0	0.0	1.0	0.0	-0.865	90.0	53.0	
11.0	0.0	0.0	1.0	0.0	-0.894	90.0	53.0	
12.0	0.0	0.0	1.0	0.0	-0.865	90.2	53.2	
13.0	0.0	0.0	1.0	0.0	-0.885	89.7	51.7	
14.0	0.0	0.0	1.0	0.0	-0.865	89.4	53.0	
15.0	0.0	0.0	1.0	0.0	-0.875	90.0	53.0	
0.0	0.0	0.0	1.0	0.0	-0.875	90.2	53.2	
1.0	0.0	0.0	1.0	0.0	-0.865	89.4	50.4	
2.0	0.0	0.0	1.0	0.0	-0.865	89.7	53.0	
3.0	0.0	0.0	1.0	0.0	-0.865	90.0	53.0	
4.0	0.0	0.0	1.0	0.0	-0.875	90.0	53.2	
5.0	0.0	0.0	1.0	0.0	-0.865	89.2	51.0	
6.0	0.0	0.0	1.0	0.0	-0.865	90.0	53.0	
7.0	0.0	0.0	1.0	0.0	-0.885	90.0	53.0	
8.0	0.0	0.0	1.0	0.0	-0.885	90.0	53.4	
9.0	0.0	0.0	1.0	0.0	-0.846	88.7	51.0	
10.0	0.0	0.0	1.0	0.0	-0.837	90.0	53.2	
11.0	0.0	0.0	1.0	0.0	-0.865	90.0	53.0	
12.0	0.0	0.0	1.0	0.0	-0.875	90.0	53.2	
13.0	0.0	0.0	1.0	0.0	-0.933	88.7	51.0	
14.0	0.0	0.0	1.0	0.0	-0.894	89.7	54.0	
15.0	0.0	0.0	1.0	0.0	-0.885	90.0	53.0	
0.0	0.0	0.0	1.0	0.0	-0.875	90.0	53.2	
1.0	0.0	0.0	1.0	0.0	-0.856	89.0	51.2	
2.0	0.0	0.0	1.0	0.0	-0.846	90.0	54.4	
3.0	0.0	0.0	1.0	0.0	-0.875	90.0	53.0	
4.0	0.0	0.0	1.0	0.0	-0.885	90.2	53.2	
5.0	0.0	0.0	1.0	0.0	-0.875	89.2	51.7	
6.0	0.0	0.0	1.0	0.0	-0.865	89.7	54.4	
7.0	0.0	0.0	1.0	0.0	-0.865	90.0	53.0	
8.0	0.0	0.0	1.0	0.0	-0.875	90.0	53.2	
9.0	0.0	0.0	1.0	0.0	-0.865	89.7	52.2	
10.0	0.0	0.0	1.0	0.0	-0.875	89.7	54.7	
11.0	0.0	0.0	1.0	0.0	-0.875	89.7	53.0	
12.0	0.0	0.0	1.0	0.0	-0.875	90.2	53.0	
13.0	0.0	0.0	1.0	0.0	-0.856	90.0	52.0	
14.0	0.0	0.0	1.0	0.0	-0.865	89.7	54.7	
15.0	0.0	0.0	1.0	0.0	-0.856	90.0	53.0	
0.0	0.0	0.0	1.0	0.0	-0.865	90.0	53.2	
1.0	0.0	0.0	1.0	0.0	-0.875	90.0	52.0	
2.0	0.0	0.0	1.0	0.0	-0.846	89.7	54.4	
3.0	0.0	0.0	1.0	0.0	-0.885	90.0	53.0	
4.0	0.0	0.0	1.0	0.0	-0.875	90.2	53.2	
5.0	0.0	0.0	1.0	0.0	-0.875	90.0	52.0	
6.0	0.0	0.0	1.0	0.0	-0.865	89.7	54.2	
7.0	0.0	0.0	1.0	0.0	-0.865	90.0	53.0	
8.0	0.0	0.0	1.0	0.0	-0.885	90.2	53.2	
9.0	0.0	0.0	1.0	0.0	-0.865	89.7	52.0	
10.0	0.0	0.0	1.0	0.0	-0.875	89.7	54.0	
11.0	0.0	0.0	1.0	0.0	-0.875	90.0	53.0	
12.0	0.0	0.0	1.0	0.0	-0.875	90.0	53.2	
13.0	0.0	0.0	1.0	0.0	-0.885	89.7	52.0	
14.0	0.0	0.0	1.0	0.0	-0.865	89.7	53.7	
15.0	0.0	0.0	1.0	0.0	-0.875	90.0	53.0	
0.0	0.0	0.0	1.0	0.0	-0.865	90.0	53.2	
1.0	0.0	0.0	1.0	0.0	-0.865	90.0	53.0	
2.0	0.0	0.0	1.0	0.0	-0.875	89.7	53.2	
3.0	0.0	0.0	1.0	0.0	-0.885	90.0	53.0	
4.0	0.0	0.0	1.0	0.0	-0.875	90.0	53.2	
5.0	0.0	0.0	1.0	0.0	-0.865	89.7	53.0	
6.0	0.0	0.0	1.0	0.0	-0.885	89.7	53.0	
7.0	0.0	0.0	1.0	0.0	-0.875	90.0	53.0	
8.0	0.0	0.0	1.0	0.0	-0.865	90.0	53.2	
9.0	0.0	0.0	1.0	0.0	-0.856	90.0	52.0	
10.0	0.0	0.0	1.0	0.0	-0.856	89.7	53.0	
11.0	0.0	0.0	1.0	0.0	-0.885	90.0	53.0	
12.0	0.0	0.0	1.0	0.0	-0.865	90.0	53.2	
13.0	0.0	0.0	1.0	0.0	-0.875	90.0	53.0	
14.0	0.0	0.0	1.0	0.0	-0.875	89.7	53.0	
15.0	0.0	0.0	1.0	0.0	-0.885	90.0	53.0	
0.0	0.0	0.0	1.0	0.0	-0.875	90.0	53.0	
1.0	0.0	0.0	1.0	0.0	-0.875	90.0	53.2	
2.0	0.0	0.0	1.0	0.0	-0.885	89.7	52.4	
3.0	0.0	0.0	1.0	0.0	-0.885	90.2	53.0	
4.0	0.0	0.0	1.0	0.0	-0.875	90.0	53.0	
5.0	0.0	0.0	1.0	0.0	-0.865	90.2	52.2	
6.0	0.0	0.0	1.0	0.0	-0.875	89.7	52.7	
7.0	0.0	0.0	1.0	0.0	-0.875	90.4	53.0	
8.0	0.0	0.0	1.0	0.0	-0.856	90.0	53.0	
9.0	0.0	0.0	1.0	0.0	-0.875	90.0	52.7	
10.0	0.0	0.0	1.0	0.0	-0.875	89.7	52.7	
11.0	0.0	0.0	1.0	0.0	-0.865	91.0	53.0	
12.0	0.0	0.0	1.0	0.0	-0.875	90.0	53.0	
13.0	0.0	0.0	1.0	0.0	-0.865	90.2	53.0	
14.0	0.0	0.0	1.0	0.0	-0.885	89.7	52.4	
15.0	0.0	0.0	1.0	0.0	-0.865	91.0	53.0	
0.0	0.0	0.0	1.0	0.0	-0.865	90.0	53.0	
1.0	0.0	0.0	1.0	0.0	-0.875	90.2	53.2	
2.0	0.0	0.0	1.0	0.0	-0.865	90.0	52.4	
3.0	0.0	0.0	1.0	0.0	-0.865	90.7	53.0	
4.0	0.0	0.0	1.0	0.0	-0.885	90.0	53.2	
5.0	0.0	0.0	1.0	0.0	-0.865	90.0	52.2	
6.0	0.0	0.0	1.0	0.0	-0.885	89.7	52.7	
7.0	0.0	0.0	1.0	0.0	-0.865	90.4	53.0	
8.0	0.0	0.0	1.0	0.0	-0.865	90.0	53.0	
9.0	0.0	0.0	1.0	0.0	-0.875	90.0	53.0	
10.0	0.0	0.0	1.0	0.0	-0.865	89.7	52.0	
11.0	0.0	0.0	1.0	0.0	-0.865	90.2	53.0	
12.0	0.0	0.0	1.0	0.0	-0.885	90.0	53.0	
13.0	0.0	0.0	1.0	0.0	-0.865	90.0	53.2	
14.0	0.0	0.0	1.0	0.0	-0.865	90.0	52.7	
15.0	0.0	0.0	1.0	0.0	-0.875	90.0	52.7	
0.0	0.0	0.0	1.0	0.0	-0.875	90.0	53.0	
1.0	0.0	0.0	1.0	0.0	-0.875	90.2	53.2	
2.0	0.0	0.0	1.0	0.0	-0.865	89.7	52.2	
3.0	0.0	0.0	1.0	0.0	-0.865	90.0	52.7	
4.0	0.0	0.0	1.0	0.0	-0.865	90.0	53.0	
5.0	0.0	0.0	1.0	0.0	-0.865	90.0	53.2	
6.0	0.0	0.0	1.0	0.0	-0.885	90.0	52.2	
7.0	0.0	0.0	1.0	0.0	-0.885	90.0	53.0	
8.0	0.0	0.0	1.0	0.0	-0.894	90.0	53.0	
9.0	0.0	0.0	1.0	0.0	-0.865	90.2	53.2	
10.0	0.0	0.0	1.0	0.0	-0.875	89.7	51.7	
11.0	0.0	0.0	1.0	0.0	-0.875	90.0	53.0	
12.0	0.0	0.0	1.0	0.0	-0.856	90.0	53.0	
13.0	0.0	0.0	1.0	0.0	-0.875	90.0	53.2	
14.0	0.0	0.0	1.0	0.0	-0.875	90.0	51.2	
15.0	0.0	0.0	1.0	0.0	-0.875	89.7	52.7	
0.0	0.0	0.0	1.0	0.0	-0.865	90.0	53.0	
1.0	0.0	0.0	1.0	0.0	-0.875	90.2	53.2	
2.0	0.0	0.0	1.0	0.0	-0.865	89.4	50.7	
3.0	0.0	0.0	1.0	0.0	-0.856	90.0	53.0	
4.0	0.0	0.0	1.0	0.0	-0.875	90.0	53.0	
5.0	0.0	0.0	1.0	0.0	-0.875	90.0	53.4	
6.0	0.0	0.0	1.0	0.0	-0.865	89.0	50.4	
7.0	0.0	0.0	1.0	0.0	-0.875	89.7	53.0	
8.0	0.0	0.0	1.0	0.0	-0.865	90.0	53.0	
9.0	0.0	0.0	1.0	0.0	-0.865	90.0	53.2	
10.0	0.0	0.0	1.0	0.0	-0.856	88.7	51.0	
11.0	0.0	0.0	1.0	0.0	-0.875	89.7	53.2	
12.0	0.0	0.0	1.0	0.0	-0.875	90.0	53.0	
13.0	0.0	0.0	1.0	0.0	-0.875	90.2	53.2	
14.0	0.0	0.0	1.0	0.0	-0.885	88.7	51.4	
15.0	0.0	0.0	1.0	0.0	-0.875	90.0	54.0	
0.0	0.0	0.0	1.0	0.0	-0.865	90.0	53.0	
1.0	0.0	0.0	1.0	0.0	-0.856	90.0	53.2	
2.0	0.0	0.0	1.0	0.0	-0.875	89.0	51.4	
3.0	0.0	0.0	1.0	0.0	-0.875	90.0	54.4	
4.0	0.0	0.0	1.0	0.0	-0.875	90.0	53.0	
5.0	0.0	0.0	1.0	0.0	-0.865	90.2	53.2	
6.0	0.0	0.0	1.0	0.0	-0.875	89.2	52.0	
7.0	0.0	0.0	1.0	0.0	-0.885	90.0	54.7	
8.0	0.0	0.0	1.0	0.0	-0.865	90.0	53.0	
9.0	0.0	0.0	1.0	0.0	-0.856	90.0	53.2	
10.0	0.0	0.0	1.0	0.0	-0.865	89.7	52.0	
11.0	0.0	0.0	1.0	0.0	-0.865	89.7	54.4	
12.0	0.0	0.0	1.0	0.0	-0.875	90.0	53.0	
13.0	0.0	0.0	1.0	0.0	-0.865	90.0	53.2	
14.0	0.0	0.0	1.0	0.0	-0.865	90.0	52.7	
15.0	0.0	0.0	1.0	0.0	-0.885	89.7	54.7	
0.0	0.0	0.0	1.0	0.0	-0.856	90.0	52.7	
1.0	0.0	0.0	1.0	0.0	-0.856	90.0	53.2	
2.0	0.0	0.0	1.0	0.0	-0.875	90.2	51.7	
3.0	0.0	0.0	1.0	0.0	-0.875	89.7	54.4	
4.0	0.0	0.0	1.0	0.0	-0.865	90.0	53.0	
5.0	0.0	0.0	1.0	0.0	-0.875	90.2	53.4	
6.0	0.0	0.0	1.0	0.0	-0.875	90.0	52.2	
7.0	0.0	0.0	1.0	0.0	-0.875	89.7	54.2	
8.0	0.0	0.0	1.0	0.0	-0.865	90.0	53.0	
9.0	0.0	0.0	1.0	0.0	-0.875	90.2	53.2	
10.0	0.0	0.0	1.0	0.0	-0.875	89.7	52.0	
11.0	0.0	0.0	1.0	0.0	-0.865	89.7	54.0	
12.0	0.0	0.0	1.0	0.0	-0.856	90.0	53.0	
13.0	0.0	0.0	1.0	0.0	-0.865	90.0	53.2	
14.0	0.0	0.0	1.0	0.0	-0.865	89.7	52.0	
15.0	0.0	0.0	1.0	0.0	-0.875	89.7	53.7	
0.0	0.0	0.0	1.0	0.0	-0.865	90.0	53.0	
1.0	0.0	0.0	1.0	0.0	-0.865	90.0	53.0	
2.0	0.0	0.0	1.0	0.0	-0.865	89.7	52.4	
3.0	0.0	0.0	1.0	0.0	-0.885	89.7	53.4	
4.0	0.0	0.0	1.0	0.0	-0.865	90.0	53.0	
5.0	0.0	0.0	1.0	0.0	-0.865	90.0	53.0	
6.0	0.0	0.0	1.0	0.0	-0.875	90.0	52.7	
7.0	0.0	0.0	1.0	0.0	-0.875	89.4	53.2	
8.0	0.0	0.0	1.0	0.0	-0.865	90.0	52.7	
9.0	0.0	0.0	1.0	0.0	-0.865	90.0	53.0	
10.0	0.0	0.0	1.0	0.0	-0.875	89.7	52.7	
11.0	0.0	0.0	1.0	0.0	-0.885	89.7	53.0	
12.0	0.0	0.0	1.0	0.0	-0.875	90.0	53.0	
13.0	0.0	0.0	1.0	0.0	-0.856	90.0	53.0	
14.0	0.0	0.0	1.0	0.0	-0.865	90.0	52.4	
15.0	0.0	0.0	1.0	0.0	-0.875	89.7	53.0	
0.0	0.0	0.0	1.0	0.0	-0.875	90.0	52.7	
1.0	0.0	0.0	1.0	0.0	-0.865	90.0	53.0	
2.0	0.0	0.0	1.0	0.0	-0.865	90.0	52.7	
3.0	0.0	0.0	1.0	0.0	-0.885	89.7	51.4	
4.0	0.0	0.0	1.0	0.0	-0.865	90.2	51.0	
5.0	0.0	0.0	1.0	0.0	-0.856	90.0	50.7	
6.0	0.0	0.0	1.0	0.0	-0.856	90.2	49.7	
7.0	0.0	0.0	1.0	0.0	-0.875	89.7	49.4	
8.0	0.0	0.0	1.0	0.0	-0.875	90.7	50.0	
9.0	0.0	0.0	1.0	0.0	-0.875	90.0	50.0	
10.0	0.0	0.0	1.0	0.0	-0.875	90.0	50.2	
11.0	0.0	0.0	1.0	0.0	-0.875	89.4	49.4	
12.0	0.0	0.0	1.0	0.0	-0.875	91.0	50.0	
13.0	0.0	0.0	1.0	0.0	-0.865	90.0	50.2	
14.0	0.0	0.0	1.0	0.0	-0.885	90.0	49.0	
15.0	0.0	0.0	1.0	0.0	-0.865	89.7	49.0	
0.0	0.0	0.0	1.0	0.0	-0.865	91.0	50.0	
1.0	0.0	0.0	1.0	0.0	-0.865	90.0	50.0	
2.0	0.0	0.0	1.0	0.0	-0.894	90.2	50.2	
3.0	0.0	0.0	1.0	0.0	-0.875	89.7	49.4	
4.0	0.0	0.0	1.0	0.0	-0.865	90.7	50.0	
5.0	0.0	0.0	1.0	0.0	-0.865	90.0	50.0	
6.0	0.0	0.0	1.0	0.0	-0.875	90.0	50.0	
7.0	0.0	0.0	1.0	0.0	-0.846	89.7	49.7	
8.0	0.0	0.0	1.0	0.0	-0.856	90.4	50.0	
9.0	0.0	0.0	1.0	0.0	-0.865	90.0	50.0	
10.0	0.0	0.0	1.0	0.0	-0.885	90.2	50.4	
11.0	0.0	0.0	1.0	0.0	-0.875	89.4	49.7	
12.0	0.0	0.0	1.0	0.0	-0.875	90.2	49.7	
13.0	0.0	0.0	1.0	0.0	-0.875	90.0	50.0	
14.0	0.0	0.0	1.0	0.0	-0.856	90.2	50.2	
15.0	0.0	0.0	1.0	0.0	-0.865	89.7	49.4	
0.0	0.0	0.0	1.0	0.0	-0.875	90.0	50.0	
1.0	0.0	0.0	1.0	0.0	-0.865	90.0	50.0	
2.0	0.0	0.0	1.0	0.0	-0.885	90.2	50.4	
3.0	0.0	0.0	1.0	0.0	-0.875	90.0	49.4	
4.0	0.0	0.0	1.0	0.0	-0.875	89.7	50.0	
5.0	0.0	0.0	1.0	0.0	-0.865	90.0	50.0	
6.0	0.0	0.0	1.0	0.0	-0.865	90.0	50.4	
7.0	0.0	0.0	1.0	0.0	-0.885	89.4	48.7	
8.0	0.0	0.0	1.0	0.0	-0.885	90.0	49.7	
9.0	0.0	0.0	1.0	0.0	-0.865	89.7	49.7	
10.0	0.0	0.0	1.0	0.0	-0.865	90.2	50.2	
11.0	0.0	0.0	1.0	0.0	-0.856	89.7	47.7	
12.0	0.0	0.0	1.0	0.0	-0.856	89.7	49.7	
13.0	0.0	0.0	1.0	0.0	-0.865	90.0	50.0	
14.0	0.0	0.0	1.0	0.0	-0.875	90.2	50.4	
15.0	0.0	0.0	1.0	0.0	-0.875	89.7	47.4	
0.0	0.0	0.0	1.0	0.0	-0.885	90.0	49.7	
1.0	0.0	0.0	1.0	0.0	-0.865	90.0	50.0	
2.0	0.0	0.0	1.0	0.0	-0.885	90.0	50.2	
3.0	0.0	0.0	1.0	0.0	-0.865	89.2	48.0	
4.0	0.0	0.0	1.0	0.0	-0.865	90.0	50.0	
5.0	0.0	0.0	1.0	0.0	-0.875	90.0	50.0	
6.0	0.0	0.0	1.0	0.0	-0.856	90.0	50.2	
7.0	0.0	0.0	1.0	0.0	-0.865	89.0	48.0	
8.0	0.0	0.0	1.0	0.0	-0.885	90.0	50.0	
9.0	0.0	0.0	1.0	0.0	-0.885	90.0	50.0	
10.0	0.0	0.0	1.0	0.0	-0.875	90.2	50.4	
11.0	0.0	0.0	1.0	0.0	-0.856	88.7	48.2	
12.0	0.0	0.0	1.0	0.0	-0.865	89.7	50.4	
13.0	0.0	0.0	1.0	0.0	-0.856	90.0	50.0	
14.0	0.0	0.0	1.0	0.0	-0.865	90.0	50.2	
15.0	0.0	0.0	1.0	0.0	-0.885	88.7	49.0	
0.0	0.0	0.0	1.0	0.0	-0.865	90.0	51.0	
1.0	0.0	0.0	1.0	0.0	-0.875	90.0	49.7	
2.0	0.0	0.0	1.0	0.0	-0.875	90.0	50.0	
3.0	0.0	0.0	1.0	0.0	-0.875	89.0	49.0	
4.0	0.0	0.0	1.0	0.0	-0.885	89.7	51.4	
5.0	0.0	0.0	1.0	0.0	-0.865	90.0	50.0	
6.0	0.0	0.0	1.0	0.0	-0.875	90.0	50.2	
7.0	0.0	0.0	1.0	0.0	-0.865	89.4	49.4	
8.0	0.0	0.0	1.0	0.0	-0.865	89.7	51.7	
9.0	0.0	0.0	1.0	0.0	-0.856	90.0	50.0	
10.0	0.0	0.0	1.0	0.0	-0.875	90.0	50.2	
11.0	0.0	0.0	1.0	0.0	-0.875	89.7	49.4	
12.0	0.0	0.0	1.0	0.0	-0.856	89.4	51.7	
13.0	0.0	0.0	1.0	0.0	-0.875	90.0	50.0	
14.0	0.0	0.0	1.0	0.0	-0.885	90.0	50.2	
15.0	0.0	0.0	1.0	0.0	-0.885	90.0	49.0	
0.0	0.0	0.0	1.0	0.0	-0.875	89.7	51.7	
1.0	0.0	0.0	1.0	0.0	-0.865	90.0	49.7	
2.0	0.0	0.0	1.0	0.0	-0.875	90.0	50.2	
3.0	0.0	0.0	1.0	0.0	-0.885	90.2	49.7	
4.0	0.0	0.0	1.0	0.0	-0.875	90.0	51.4	
5.0	0.0	0.0	1.0	0.0	-0.885	90.0	50.0	
6.0	0.0	0.0	1.0	0.0	-0.865	90.0	50.2	
7.0	0.0	0.0	1.0	0.0	-0.885	90.0	49.7	
8.0	0.0	0.0	1.0	0.0	-0.875	89.7	51.2	
9.0	0.0	0.0	1.0	0.0	-0.846	90.0	50.0	
10.0	0.0	0.0	1.0	0.0	-0.875	90.2	50.2	
11.0	0.0	0.0	1.0	0.0	-0.885	89.7	49.0	
12.0	0.0	0.0	1.0	0.0	-0.875	89.7	50.7	
13.0	0.0	0.0	1.0	0.0	-0.875	90.0	50.0	
14.0	0.0	0.0	1.0	0.0	-0.885	90.2	50.2	
15.0	0.0	0.0	1.0	0.0	-0.875	89.7	49.7	
0.0	0.0	0.0	1.0	0.0	-0.865	89.7	50.4	
1.0	0.0	0.0	1.0	0.0	-0.875	90.0	50.0	
2.0	0.0	0.0	1.0	0.0	-0.885	90.0	50.2	
3.0	0.0	0.0	1.0	0.0	-0.885	89.7	50.0	
4.0	0.0	0.0	1.0	0.0	-0.856	89.7	50.2	
5.0	0.0	0.0	1.0	0.0	-0.865	90.0	50.0	
6.0	0.0	0.0	1.0	0.0	-0.865	90.0	50.2	
7.0	0.0	0.0	1.0	0.0	-0.875	90.0	50.2	
8.0	0.0	0.0	1.0	0.0	-0.875	89.7	50.0	
9.0	0.0	0.0	1.0	0.0	-0.865	90.0	50.0	
10.0	0.0	0.0	1.0	0.0	-0.865	90.0	50.0	
11.0	0.0	0.0	1.0	0.0	-0.885	89.7	50.0	
12.0	0.0	0.0	1.0	0.0	-0.885	89.7	49.4	
13.0	0.0	0.0	1.0	0.0	-0.865	90.0	49.7	
14.0	0.0	0.0	1.0	0.0	-0.875	90.0	50.2	
15.0	0.0	0.0	1.0	0.0	-0.865	90.2	50.2	
0.0	0.0	0.0	1.0	0.0	-0.885	89.7	49.2	
1.0	0.0	0.0	1.0	0.0	-0.865	90.0	50.0	
2.0	0.0	0.0	1.0	0.0	-0.875	90.0	50.0	
3.0	0.0	0.0	1.0	0.0	-0.865	90.0	49.0	
4.0	0.0	0.0	1.0	0.0	-0.885	89.7	49.0	
5.0	0.0	0.0	1.0	0.0	-0.875	90.4	49.7	
6.0	0.0	0.0	1.0	0.0	-0.865	90.0	50.2	
7.0	0.0	0.0	1.0	0.0	-0.875	90.2	50.2	
8.0	0.0	0.0	1.0	0.0	-0.875	89.7	49.4	
9.0	0.0	0.0	1.0	0.0	-0.856	90.7	50.0	
10.0	0.0	0.0	1.0	0.0	-0.865	90.0	50.0	
11.0	0.0	0.0	1.0	0.0	-0.856	90.2	49.7	
12.0	0.0	0.0	1.0	0.0	-0.875	89.7	48.7	
13.0	0.0	0.0	1.0	0.0	-0.865	91.0	49.7	
14.0	0.0	0.0	1.0	0.0	-0.875	90.0	50.0	
15.0	0.0	0.0	1.0	0.0	-0.885	90.0	49.4	
0.0	0.0	0.0	1.0	0.0	-0.875	90.0	49.0	
1.0	0.0	0.0	1.0	0.0	-0.875	90.7	50.0	
2.0	0.0	0.0	1.0	0.0	-0.885	90.0	50.0	
3.0	0.0	0.0	1.0	0.0	-0.885	90.2	50.2	
4.0	0.0	0.0	1.0	0.0	-0.865	89.7	49.4	
5.0	0.0	0.0	1.0	0.0	-0.875	90.7	50.0	
6.0	0.0	0.0	1.0	0.0	-0.885	90.0	50.0	
7.0	0.0	0.0	1.0	0.0	-0.875	90.0	50.0	
8.0	0.0	0.0	1.0	0.0	-0.894	90.0	49.0	
9.0	0.0	0.0	1.0	0.0	-0.875	90.2	50.0	
10.0	0.0	0.0	1.0	0.0	-0.885	90.0	50.0	
11.0	0.0	0.0	1.0	0.0	-0.865	90.0	50.2	
12.0	0.0	0.0	1.0	0.0	-0.885	90.0	49.7	
13.0	0.0	0.0	1.0	0.0	-0.885	90.2	50.0	
14.0	0.0	0.0	1.0	0.0	-0.885	90.0	50.0	
15.0	0.0	0.0	1.0	0.0	-0.865	90.0	50.2	
0.0	0.0	0.0	1.0	0.0	-0.865	89.4	49.7	
1.0	0.0	0.0	1.0	0.0	-0.875	90.0	50.0	
2.0	0.0	0.0	1.0	0.0	-0.875	90.0	50.0	
3.0	0.0	0.0	1.0	0.0	-0.875	90.2	50.4	
4.0	0.0	0.0	1.0	0.0	-0.885	90.0	49.4	
5.0	0.0	0.0	1.0	0.0	-0.875	89.7	50.0	
6.0	0.0	0.0	1.0	0.0	-0.875	90.0	50.0	
7.0	0.0	0.0	1.0	0.0	-0.885	90.0	50.0	
8.0	0.0	0.0	1.0	0.0	-0.885	89.7	48.0	
9.0	0.0	0.0	1.0	0.0	-0.865	90.0	50.0	
10.0	0.0	0.0	1.0	0.0	-0.885	90.0	50.0	
11.0	0.0	0.0	1.0	0.0	-0.875	90.0	50.4	
12.0	0.0	0.0	1.0	0.0	-0.875	89.7	47.4	
13.0	0.0	0.0	1.0	0.0	-0.865	89.7	49.7	
14.0	0.0	0.0	1.0	0.0	-0.865	90.0	50.0	
15.0	0.0	0.0	1.0	0.0	-0.875	90.2	50.2	
0.0	0.0	0.0	1.0	0.0	-0.875	89.7	47.4	
1.0	0.0	0.0	1.0	0.0	-0.885	89.7	50.0	
2.0	0.0	0.0	1.0	0.0	-0.875	90.0	50.0	
3.0	0.0	0.0	1.0	0.0	-0.865	90.0	50.2	
4.0	0.0	0.0	1.0	0.0	-0.865	89.2	47.7	
5.0	0.0	0.0	1.0	0.0	-0.875	89.7	50.0	
6.0	0.0	0.0	1.0	0.0	-0.875	90.0	50.0	
7.0	0.0	0.0	1.0	0.0	-0.885	90.2	50.2	
8.0	0.0	0.0	1.0	0.0	-0.875	89.0	48.0	
9.0	0.0	0.0	1.0	0.0	-0.885	89.7	50.0	
10.0	0.0	0.0	1.0	0.0	-0.875	90.0	50.0	
11.0	0.0	0.0	1.0	0.0	-0.885	90.0	50.4	
12.0	0.0	0.0	1.0	0.0	-0.885	88.7	48.2	
13.0	0.0	0.0	1.0	0.0	-0.865	90.0	50.7	
14.0	0.0	0.0	1.0	0.0	-0.865	90.0	50.0	
15.0	0.0	0.0	1.0	0.0	-0.885	90.2	50.2	
0.0	0.0	0.0	1.0	0.0	-0.865	88.7	49.0	
1.0	0.0	0.0	1.0	0.0	-0.865	89.7	51.2	
2.0	0.0	0.0	1.0	0.0	-0.875	90.0	50.0	
3.0	0.0	0.0	1.0	0.0	-0.875	90.0	50.2	
4.0	0.0	0.0	1.0	0.0	-0.865	89.0	49.2	
5.0	0.0	0.0	1.0	0.0	-0.875	90.0	51.7	
6.0	0.0	0.0	1.0	0.0	-0.865	90.0	50.0	
7.0	0.0	0.0	1.0	0.0	-0.865	90.0	50.0	
8.0	0.0	0.0	1.0	0.0	-0.865	89.4	49.0	
9.0	0.0	0.0	1.0	0.0	-0.856	89.7	51.7	
10.0	0.0	0.0	1.0	0.0	-0.865	90.0	50.0	
11.0	0.0	0.0	1.0	0.0	-0.885	90.0	50.2	
12.0	0.0	0.0	1.0	0.0	-0.885	89.7	49.0	
13.0	0.0	0.0	1.0	0.0	-0.856	89.7	51.4	
14.0	0.0	0.0	1.0	0.0	-0.875	90.0	49.7	
15.0	0.0	0.0	1.0	0.0	-0.875	90.0	50.2	
0.0	0.0	0.0	1.0	0.0	-0.865	90.0	49.0	
1.0	0.0	0.0	1.0	0.0	-0.865	89.4	51.7	
2.0	0.0	0.0	1.0	0.0	-0.875	90.0	49.7	
3.0	0.0	0.0	1.0	0.0	-0.865	90.0	50.2	
4.0	0.0	0.0	1.0	0.0	-0.875	90.2	49.0	
5.0	0.0	0.0	1.0	0.0	-0.856	89.7	51.4	
6.0	0.0	0.0	1.0	0.0	-0.875	90.0	50.0	
7.0	0.0	0.0	1.0	0.0	-0.856	90.0	50.0	
8.0	0.0	0.0	1.0	0.0	-0.856	89.7	49.2	
9.0	0.0	0.0	1.0	0.0	-0.875	89.7	51.2	
10.0	0.0	0.0	1.0	0.0	-0.875	90.0	50.0	
11.0	0.0	0.0	1.0	0.0	-0.875	90.0	50.4	
12.0	0.0	0.0	1.0	0.0	-0.885	90.0	49.0	
13.0	0.0	0.0	1.0	0.0	-0.865	89.7	50.7	
14.0	0.0	0.0	1.0	0.0	-0.865	90.0	49.7	
15.0	0.0	0.0	1.0	0.0	-0.875	90.0	50.2	
0.0	0.0	0.0	1.0	0.0	-0.885	89.7	50.2	
1.0	0.0	0.0	1.0	0.0	-0.865	89.7	50.7	
2.0	0.0	0.0	1.0	0.0	-0.875	90.0	50.0	
3.0	0.0	0.0	1.0	0.0	-0.875	90.0	50.2	
4.0	0.0	0.0	1.0	0.0	-0.875	89.7	50.2	
5.0	0.0	0.0	1.0	0.0	-0.865	89.4	50.0	
6.0	0.0	0.0	1.0	0.0	-0.856	90.0	50.0	
7.0	0.0	0.0	1.0	0.0	-0.865	90.0	50.0	
8.0	0.0	0.0	1.0	0.0	-0.856	90.0	49.0	
9.0	0.0	0.0	1.0	0.0	-0.865	89.7	50.0	
10.0	0.0	0.0	1.0	0.0	-0.865	90.0	50.0	
11.0	0.0	0.0	1.0	0.0	-0.885	90.0	50.0	
12.0	0.0	0.0	1.0	0.0	-0.875	90.0	50.0	
13.0	0.0	0.0	1.0	0.0	-0.865	89.7	49.7	
14.0	0.0	0.0	1.0	0.0	-0.865	90.0	49.7	
15.0	0.0	0.0	1.0	0.0	-0.865	90.0	50.0	
0.0	0.0	0.0	1.0	0.0	-0.885	90.0	50.0	
1.0	0.0	0.0	1.0	0.0	-0.875	89.7	49.7	
2.0	0.0	0.0	1.0	0.0	-0.865	90.0	50.0	
3.0	0.0	0.0	1.0	0.0	-0.885	90.0	50.0	
4.0	0.0	0.0	1.0	0.0	-0.875	90.2	49.4	
5.0	0.0	0.0	1.0	0.0	-0.865	89.7	49.0	
6.0	0.0	0.0	1.0	0.0	-0.865	90.4	50.0	
7.0	0.0	0.0	1.0	0.0	-0.875	90.0	50.0	
8.0	0.0	0.0	1.0	0.0	-0.875	90.0	49.0	
9.0	0.0	0.0	1.0	0.0	-0.875	89.7	49.0	
10.0	0.0	0.0	1.0	0.0	-0.875	90.7	50.0	
11.0	0.0	0.0	1.0	0.0	-0.885	90.0	50.2	
12.0	0.0	0.0	1.0	0.0	-0.885	90.2	49.2	
13.0	0.0	0.0	1.0	0.0	-0.875	89.7	48.7	
14.0	0.0	0.0	1.0	0.0	-0.885	91.0	50.0	
15.0	0.0	0.0	1.0	0.0	-0.875	90.0	50.0	
0.0	0.0	0.0	1.0	0.0	-0.865	90.0	50.2	
1.0	0.0	0.0	1.0	0.0	-0.856	89.4	49.2	
2.0	0.0	0.0	1.0	0.0	-0.875	90.7	49.7	
3.0	0.0	0.0	1.0	0.0	-0.865	90.0	50.0	
4.0	0.0	0.0	1.0	0.0	-0.885	90.0	49.7	
5.0	0.0	0.0	1.0	0.0	-0.865	89.7	49.2	
6.0	0.0	0.0	1.0	0.0	-0.885	90.4	50.0	
7.0	0.0	0.0	1.0	0.0	-0.885	90.0	50.0	
8.0	0.0	0.0	1.0	0.0	-0.865	90.0	50.0	
9.0	0.0	0.0	1.0	0.0	-0.865	89.7	49.0	
10.0	0.0	0.0	1.0	0.0	-0.885	90.2	50.0	
11.0	0.0	0.0	1.0	0.0	-0.875	90.0	50.0	
12.0	0.0	0.0	1.0	0.0	-0.856	90.0	50.2	
13.0	0.0	0.0	1.0	0.0	-0.865	90.0	49.2	
14.0	0.0	0.0	1.0	0.0	-0.875	90.2	50.0	
15.0	0.0	0.0	1.0	0.0	-0.885	90.0	50.0	
0.0	0.0	0.0	1.0	0.0	-0.885	90.0	50.2	
1.0	0.0	0.0	1.0	0.0	-0.875	89.7	49.2	
2.0	0.0	0.0	1.0	0.0	-0.875	90.0	49.7	
3.0	0.0	0.0	1.0	0.0	-0.885	90.0	50.0	
4.0	0.0	0.0	1.0	0.0	-0.865	90.2	50.2	
5.0	0.0	0.0	1.0	0.0	-0.875	89.4	48.4	
6.0	0.0	0.0	1.0	0.0	-0.865	90.0	50.0	
7.0	0.0	0.0	1.0	0.0	-0.875	90.0	50.0	
8.0	0.0	0.0	1.0	0.0	-0.865	90.2	50.2	
9.0	0.0	0.0	1.0	0.0	-0.885	89.7	48.0	
10.0	0.0	0.0	1.0	0.0	-0.865	90.0	50.0	
11.0	0.0	0.0	1.0	0.0	-0.885	90.0	50.0	
12.0	0.0	0.0	1.0	0.0	-0.885	90.2	50.2	
13.0	0.0	0.0	1.0	0.0	-0.865	89.7	47.7	
14.0	0.0	0.0	1.0	0.0	-0.875	89.7	50.0	
15.0	0.0	0.0	1.0	0.0	-0.885	90.0	50.0	
0.0	0.0	0.0	1.0	0.0	-0.856	90.0	50.2	
1.0	0.0	0.0	1.0	0.0	-0.865	89.7	47.7	
2.0	0.0	0.0	1.0	0.0	-0.875	89.7	50.0	
3.0	0.0	0.0	1.0	0.0	-0.875	90.0	50.0	
4.0	0.0	0.0	1.0	0.0	-0.875	90.0	50.2	
5.0	0.0	0.0	1.0	0.0	-0.875	89.2	47.7	
6.0	0.0	0.0	1.0	0.0	-0.885	90.0	50.0	
7.0	0.0	0.0	1.0	0.0	-0.875	89.7	50.0	
8.0	0.0	0.0	1.0	0.0	-0.885	90.0	50.2	
9.0	0.0	0.0	1.0	0.0	-0.875	88.7	48.0	
10.0	0.0	0.0	1.0	0.0	-0.875	89.7	50.2	
11.0	0.0	0.0	1.0	0.0	-0.865	90.0	50.0	
12.0	0.0	0.0	1.0	0.0	-0.865	90.0	50.2	
13.0	0.0	0.0	1.0	0.0	-0.875	88.7	48.4	
14.0	0.0	0.0	1.0	0.0	-0.875	89.7	50.7	
15.0	0.0	0.0	1.0	0.0	-0.865	90.0	50.0	
0.0	0.0	0.0	1.0	0.0	-0.856	90.0	50.4	
1.0	0.0	0.0	1.0	0.0	-0.885	89.0	48.7	
2.0	0.0	0.0	1.0	0.0	-0.865	89.4	51.2	
3.0	0.0	0.0	1.0	0.0	-0.885	90.0	50.0	
4.0	0.0	0.0	1.0	0.0	-0.885	90.0	50.2	
5.0	0.0	0.0	1.0	0.0	-0.865	89.2	49.0	
6.0	0.0	0.0	1.0	0.0	-0.875	90.0	51.4	
7.0	0.0	0.0	1.0	0.0	-0.885	90.0	50.0	
8.0	0.0	0.0	1.0	0.0	-0.865	90.0	50.0	
9.0	0.0	0.0	1.0	0.0	-0.875	89.4	49.4	
10.0	0.0	0.0	1.0	0.0	-0.885	89.7	51.7	
11.0	0.0	0.0	1.0	0.0	-0.875	90.0	50.0	
12.0	0.0	0.0	1.0	0.0	-0.865	90.0	50.2	
13.0	0.0	0.0	1.0	0.0	-0.865	90.0	49.4	
14.0	0.0	0.0	1.0	0.0	-0.875	90.0	51.7	
15.0	0.0	0.0	1.0	0.0	-0.875	90.0	50.0	
0.0	0.0	0.0	1.0	0.0	-0.875	90.2	50.0	
1.0	0.0	0.0	1.0	0.0	-0.865	90.0	49.0	
2.0	0.0	0.0	1.0	0.0	-0.875	89.7	51.4	
3.0	0.0	0.0	1.0	0.0	-0.885	90.0	50.0	
4.0	0.0	0.0	1.0	0.0	-0.894	90.0	50.2	
5.0	0.0	0.0	1.0	0.0	-0.875	90.0	49.0	
6.0	0.0	0.0	1.0	0.0	-0.875	89.7	51.2	
7.0	0.0	0.0	1.0	0.0	-0.875	90.0	50.0	
8.0	0.0	0.0	1.0	0.0	-0.885	90.0	50.2	
9.0	0.0	0.0	1.0	0.0	-0.885	89.7	49.2	
10.0	0.0	0.0	1.0	0.0	-0.885	89.7	51.0	
11.0	0.0	0.0	1.0	0.0	-0.865	90.0	50.0	
12.0	0.0	0.0	1.0	0.0	-0.865	90.0	50.2	
13.0	0.0	0.0	1.0	0.0	-0.885	90.0	49.2	
14.0	0.0	0.0	1.0	0.0	-0.865	89.7	50.7	
15.0	0.0	0.0	1.0	0.0	-0.875	90.0	50.0	
0.0	0.0	0.0	1.0	0.0	-0.885	90.0	50.2	
1.0	0.0	0.0	1.0	0.0	-0.865	90.0	50.2	
2.0	0.0	0.0	1.0	0.0	-0.885	89.7	50.4	
3.0	0.0	0.0	1.0	0.0	-0.885	90.0	49.7	
4.0	0.0	0.0	1.0	0.0	-0.875	90.0	50.2	
5.0	0.0	0.0	1.0	0.0	-0.875	89.4	50.2	
6.0	0.0	0.0	1.0	0.0	-0.875	89.4	50.2	
7.0	0.0	0.0	1.0	0.0	-0.885	90.0	49.7	
8.0	0.0	0.0	1.0	0.0	-0.875	90.0	50.0	
9.0	0.0	0.0	1.0	0.0	-0.865	90.0	50.2	
10.0	0.0	0.0	1.0	0.0	-0.875	89.7	50.0	
11.0	0.0	0.0	1.0	0.0	-0.875	90.0	50.0	
12.0	0.0	0.0	1.0	0.0	-0.875	90.0	50.0	
13.0	0.0	0.0	1.0	0.0	-0.865	90.0	50.0	
14.0	0.0	0.0	1.0	0.0	-0.875	89.7	49.7	
15.0	0.0	0.0	1.0	0.0	-0.875	90.0	49.7	
0.0	0.0	0.0	1.0	0.0	-0.875	90.0	50.2	
1.0	0.0	0.0	1.0	0.0	-0.865	90.0	50.2	
2.0	0.0	0.0	1.0	0.0	-0.875	89.7	49.4	
3.0	0.0	0.0	1.0	0.0	-0.885	90.2	50.0	
4.0	0.0	0.0	1.0	0.0	-0.865	90.0	50.0	
5.0	0.0	0.0	1.0	0.0	-0.865	90.2	49.4	
6.0	0.0	0.0	1.0	0.0	-0.865	89.7	49.0	
7.0	0.0	0.0	1.0	0.0	-0.885	90.4	50.0	
8.0	0.0	0.0	1.0	0.0	-0.865	90.0	50.0	
9.0	0.0	0.0	1.0	0.0	-0.875	90.2	50.0	
10.0	0.0	0.0	1.0	0.0	-0.865	89.7	49.4	
11.0	0.0	0.0	1.0	0.0	-0.885	91.0	50.0	
12.0	0.0	0.0	1.0	0.0	-0.875	90.0	50.0	
13.0	0.0	0.0	1.0	0.0	-0.885	90.2	50.2	
14.0	0.0	0.0	1.0	0.0	-0.875	89.7	49.4	
15.0	0.0	0.0	1.0	0.0	-0.885	91.0	50.0	
0.0	0.0	0.0	1.0	0.0	-0.875	90.0	50.0	
1.0	0.0	0.0	1.0	0.0	-0.865	90.0	50.2	
2.0	0.0	0.0	1.0	0.0	-0.885	89.7	49.7	
3.0	0.0	0.0	1.0	0.0	-0.865	90.7	50.0	
4.0	0.0	0.0	1.0	0.0	-0.875	90.0	50.2	
5.0	0.0	0.0	1.0	0.0	-0.875	90.0	50.0	
6.0	0.0	0.0	1.0	0.0	-0.875	90.0	49.4	
7.0	0.0	0.0	1.0	0.0	-0.865	90.4	50.0	
8.0	0.0	0.0	1.0	0.0	-0.865	90.0	50.0	
9.0	0.0	0.0	1.0	0.0	-0.865	90.0	50.0	
10.0	0.0	0.0	1.0	0.0	-0.865	90.0	49.0	
11.0	0.0	0.0	1.0	0.0	-0.894	90.2	50.0	
12.0	0.0	0.0	1.0	0.0	-0.865	89.7	50.0	
13.0	0.0	0.0	1.0	0.0	-0.875	90.0	50.4	
14.0	0.0	0.0	1.0	0.0	-0.885	89.7	49.7	
15.0	0.0	0.0	1.0	0.0	-0.865	90.0	50.0	
0.0	0.0	0.0	1.0	0.0	-0.856	90.0	50.0	
1.0	0.0	0.0	1.0	0.0	-0.856	90.0	50.0	
2.0	0.0	0.0	1.0	0.0	-0.875	90.0	49.2	
3.0	0.0	0.0	1.0	0.0	-0.875	90.0	50.0	
4.0	0.0	0.0	1.0	0.0	-0.875	90.0	50.0	
5.0	0.0	0.0	1.0	0.0	-0.885	90.2	50.0	
6.0	0.0	0.0	1.0	0.0	-0.875	90.0	49.0	
7.0	0.0	0.0	1.0	0.0	-0.875	90.0	50.0	
8.0	0.0	0.0	1.0	0.0	-0.885	90.0	50.0	
9.0	0.0	0.0	1.0	0.0	-0.865	90.2	50.4	
10.0	0.0	0.0	1.0	0.0	-0.875	90.0	48.0	
11.0	0.0	0.0	1.0	0.0	-0.885	89.7	50.0	
12.0	0.0	0.0	1.0	0.0	-0.875	90.0	50.0	
13.0	0.0	0.0	1.0	0.0	-0.856	90.2	50.4	
14.0	0.0	0.0	1.0	0.0	-0.875	90.0	47.7	
15.0	0.0	0.0	1.0	0.0	-0.875	89.7	49.7	
0.0	0.0	0.0	1.0	0.0	-0.875	90.0	50.0	
1.0	0.0	0.0	1.0	0.0	-0.875	90.0	50.2	
2.0	0.0	0.0	1.0	0.0	-0.885	89.7	47.7	
3.0	0.0	0.0	1.0	0.0	-0.885	89.7	50.0	
4.0	0.0	0.0	1.0	0.0	-0.865	90.0	50.0	
5.0	0.0	0.0	1.0	0.0	-0.865	90.0	50.4	
6.0	0.0	0.0	1.0	0.0	-0.885	89.0	48.2	
7.0	0.0	0.0	1.0	0.0	-0.865	90.0	50.0	
8.0	0.0	0.0	1.0	0.0	-0.865	90.0	50.0	
9.0	0.0	0.0	1.0	0.0	-0.885	90.0	50.2	
10.0	0.0	0.0	1.0	0.0	-0.885	88.7	48.2	
11.0	0.0	0.0	1.0	0.0	-0.885	89.7	50.2	
12.0	0.0	0.0	1.0	0.0	-0.865	90.0	50.0	
13.0	0.0	0.0	1.0	0.0	-0.875	90.0	50.4	
14.0	0.0	0.0	1.0	0.0	-0.885	88.7	48.2	
15.0	0.0	0.0	1.0	0.0	-0.865	90.0	51.0	
0.0	0.0	0.0	1.0	0.0	-0.875	90.0	50.0	
1.0	0.0	0.0	1.0	0.0	-0.865	90.0	50.2	
2.0	0.0	0.0	1.0	0.0	-0.865	89.0	49.0	
3.0	0.0	0.0	1.0	0.0	-0.885	90.0	51.4	
4.0	0.0	0.0	1.0	0.0	-0.856	90.0	50.0	
5.0	0.0	0.0	1.0	0.0	-0.865	90.0	50.0	
6.0	0.0	0.0	1.0	0.0	-0.875	89.2	49.2	
7.0	0.0	0.0	1.0	0.0	-0.875	89.4	51.7	
8.0	0.0	0.0	1.0	0.0	-0.875	90.0	50.0	
9.0	0.0	0.0	1.0	0.0	-0.865	90.0	50.2	
10.0	0.0	0.0	1.0	0.0	-0.846	89.7	49.2	
11.0	0.0	0.0	1.0	0.0	-0.865	90.0	51.7	
12.0	0.0	0.0	1.0	0.0	-0.865	90.0	50.0	
13.0	0.0	0.0	1.0	0.0	-0.865	90.0	50.2	
14.0	0.0	0.0	1.0	0.0	-0.885	90.0	49.7	
15.0	0.0	0.0	1.0	0.0	-0.885	89.7	51.7	
0.0	0.0	0.0	1.0	0.0	-0.865	90.0	50.0	
1.0	0.0	0.0	1.0	0.0	-0.865	90.0	50.2	
2.0	0.0	0.0	1.0	0.0	-0.856	90.0	49.0	
3.0	0.0	0.0	1.0	0.0	-0.865	89.7	51.4	
4.0	0.0	0.0	1.0	0.0	-0.865	90.0	50.0	
5.0	0.0	0.0	1.0	0.0	-0.856	90.2	50.2	
6.0	0.0	0.0	1.0	0.0	-0.865	90.0	49.0	
7.0	0.0	0.0	1.0	0.0	-0.885	89.7	51.2	
8.0	0.0	0.0	1.0	0.0	-0.865	90.0	50.0	
9.0	0.0	0.0	1.0	0.0	-0.865	90.2	50.0	
10.0	0.0	0.0	1.0	0.0	-0.865	89.7	49.7	
11.0	0.0	0.0	1.0	0.0	-0.885	89.7	51.0	
12.0	0.0	0.0	1.0	0.0	-0.865	90.0	49.7	
13.0	0.0	0.0	1.0	0.0	-0.875	90.0	50.0	
14.0	0.0	0.0	1.0	0.0	-0.885	89.7	49.2	
15.0	0.0	0.0	1.0	0.0	-0.885	89.7	50.7	
0.0	0.0	0.0	1.0	0.0	-0.865	90.0	50.0	
1.0	0.0	0.0	1.0	0.0	-0.865	90.0	50.0	
2.0	0.0	0.0	1.0	0.0	-0.875	90.0	49.2	
3.0	0.0	0.0	1.0	0.0	-0.885	89.4	50.2	
4.0	0.0	0.0	1.0	0.0	-0.875	90.0	50.0	
5.0	0.0	0.0	1.0	0.0	-0.865	90.0	50.0	
6.0	0.0	0.0	1.0	0.0	-0.885	90.0	50.2	
7.0	0.0	0.0	1.0	0.0	-0.885	89.7	49.7	
8.0	0.0	0.0	1.0	0.0	-0.875	90.0	50.0	
9.0	0.0	0.0	1.0	0.0	-0.856	90.0	50.0	
10.0	0.0	0.0	1.0	0.0	-0.885	89.7	50.2	
11.0	0.0	0.0	1.0	0.0	-0.865	89.4	49.7	
12.0	0.0	0.0	1.0	0.0	-0.885	90.0	50.0	
13.0	0.0	0.0	1.0	0.0	-0.875	90.0	50.2	
14.0	0.0	0.0	1.0	0.0	-0.865	90.0	50.0	
15.0	0.0	0.0	1.0	0.0	-0.875	89.7	49.7	
0.0	0.0	0.0	1.0	0.0	-0.865	90.0	50.0	
1.0	0.0	0.0	1.0	0.0	-0.865	90.0	50.2	
2.0	0.0	0.0	1.0	0.0	-0.875	90.0	49.0	
3.0	0.0	0.0	1.0	0.0	-0.885	89.7	49.2	
4.0	0.0	0.0	1.0	0.0	-0.875	90.2	50.0	
5.0	0.0	0.0	1.0	0.0	-0.856	90.0	50.0	
6.0	0.0	0.0	1.0	0.0	-0.885	90.2	49.7	
7.0	0.0	0.0	1.0	0.0	-0.865	89.7	49.4	
8.0	0.0	0.0	1.0	0.0	-0.875	90.7	50.0	
9.0	0.0	0.0	1.0	0.0	-0.875	90.0	50.0	
10.0	0.0	0.0	1.0	0.0	-0.875	90.2	49.7	
11.0	0.0	0.0	1.0	0.0	-0.865	89.4	49.4	
12.0	0.0	0.0	1.0	0.0	-0.865	91.0	49.7	
13.0	0.0	0.0	1.0	0.0	-0.865	90.0	50.0	
14.0	0.0	0.0	1.0	0.0	-0.885	90.2	49.2	
15.0	0.0	0.0	1.0	0.0	-0.856	89.7	49.4	
0.0	0.0	0.0	1.0	0.0	-0.875	90.7	50.0	
1.0	0.0	0.0	1.0	0.0	-0.865	90.0	50.0	
2.0	0.0	0.0	1.0	0.0	-0.865	90.2	50.2	
3.0	0.0	0.0	1.0	0.0	-0.865	89.7	49.4	
4.0	0.0	0.0	1.0	0.0	-0.885	90.7	50.0	
5.0	0.0	0.0	1.0	0.0	-0.856	90.0	50.0	
6.0	0.0	0.0	1.0	0.0	-0.885	90.0	50.4	
7.0	0.0	0.0	1.0	0.0	-0.875	90.0	49.4	
8.0	0.0	0.0	1.0	0.0	-0.875	90.4	50.0	
9.0	0.0	0.0	1.0	0.0	-0.865	90.0	50.0	
10.0	0.0	0.0	1.0	0.0	-0.875	90.2	50.2	
11.0	0.0	0.0	1.0	0.0	-0.875	89.7	49.4	
12.0	0.0	0.0	1.0	0.0	-0.865	90.2	50.0	
13.0	0.0	0.0	1.0	0.0	-0.865	90.0	50.0	
14.0	0.0	0.0	1.0	0.0	-0.885	90.0	50.0	
15.0	0.0	0.0	1.0	0.0	-0.875	90.0	49.2	
0.0	0.0	0.0	1.0	0.0	-0.885	90.0	50.0	
1.0	0.0	0.0	1.0	0.0	-0.865	90.0	50.0	
2.0	0.0	0.0	1.0	0.0	-0.875	90.2	50.4	
3.0	0.0	0.0	1.0	0.0	-0.885	90.0	49.7	
4.0	0.0	0.0	1.0	0.0	-0.875	90.0	50.0	
5.0	0.0	0.0	1.0	0.0	-0.865	90.0	50.0	
6.0	0.0	0.0	1.0	0.0	-0.894	90.0	50.2	
7.0	0.0	0.0	1.0	0.0	-0.885	90.0	48.7	
8.0	0.0	0.0	1.0	0.0	-0.875	90.0	49.7	
9.0	0.0	0.0	1.0	0.0	-0.865	90.0	50.0	
10.0	0.0	0.0	1.0	0.0	-0.875	90.2	50.2	
11.0	0.0	0.0	1.0	0.0	-0.885	89.7	48.0	
12.0	0.0	0.0	1.0	0.0	-0.875	90.0	50.0	
13.0	0.0	0.0	1.0	0.0	-0.856	90.0	50.0	
14.0	0.0	0.0	1.0	0.0	-0.875	90.0	50.2	
15.0	0.0	0.0	1.0	0.0	-0.875	89.4	48.0	
0.0	0.0	0.0	1.0	0.0	-0.875	90.0	50.0	
1.0	0.0	0.0	1.0	0.0	-0.856	90.0	50.0	
2.0	0.0	0.0	1.0	0.0	-0.885	90.2	50.2	
3.0	0.0	0.0	1.0	0.0	-0.885	89.4	47.7	
4.0	0.0	0.0	1.0	0.0	-0.856	90.0	50.0	
5.0	0.0	0.0	1.0	0.0	-0.875	90.0	50.0	
6.0	0.0	0.0	1.0	0.0	-0.875	90.2	50.4	
7.0	0.0	0.0	1.0	0.0	-0.875	89.0	48.2	
8.0	0.0	0.0	1.0	0.0	-0.875	90.0	50.0	
9.0	0.0	0.0	1.0	0.0	-0.865	90.0	50.0	
10.0	0.0	0.0	1.0	0.0	-0.875	90.0	50.4	
11.0	0.0	0.0	1.0	0.0	-0.875	88.7	48.0	
12.0	0.0	0.0	1.0	0.0	-0.865	89.7	50.2	
13.0	0.0	0.0	1.0	0.0	-0.865	90.0	50.0	
14.0	0.0	0.0	1.0	0.0	-0.885	90.0	50.2	
15.0	0.0	0.0	1.0	0.0	-0.875	88.7	48.7	
0.0	0.0	0.0	1.0	0.0	-0.875	89.7	51.0	
1.0	0.0	0.0	1.0	0.0	-0.856	90.0	50.0	
2.0	0.0	0.0	1.0	0.0	-0.875	90.2	50.2	
3.0	0.0	0.0	1.0	0.0	-0.875	89.0	48.7	
4.0	0.0	0.0	1.0	0.0	-0.865	90.0	51.4	
5.0	0.0	0.0	1.0	0.0	-0.865	90.0	50.0	
6.0	0.0	0.0	1.0	0.0	-0.865	90.0	50.2	
7.0	0.0	0.0	1.0	0.0	-0.865	89.4	49.0	
8.0	0.0	0.0	1.0	0.0	-0.865	89.7	51.7	
9.0	0.0	0.0	1.0	0.0	-0.865	90.0	49.7	
10.0	0.0	0.0	1.0	0.0	-0.875	90.0	50.2	
11.0	0.0	0.0	1.0	0.0	-0.865	89.7	49.2	
12.0	0.0	0.0	1.0	0.0	-0.875	89.7	51.7	
13.0	0.0	0.0	1.0	0.0	-0.865	90.0	50.0	
14.0	0.0	0.0	1.0	0.0	-0.856	90.0	50.2	
15.0	0.0	0.0	1.0	0.0	-0.875	90.0	49.4	
0.0	0.0	0.0	1.0	0.0	-0.885	89.7	51.7	
1.0	0.0	0.0	1.0	0.0	-0.875	90.0	49.7	
2.0	0.0	0.0	1.0	0.0	-0.885	90.2	50.2	
3.0	0.0	0.0	1.0	0.0	-0.885	90.0	49.0	
4.0	0.0	0.0	1.0	0.0	-0.875	89.7	51.4	
5.0	0.0	0.0	1.0	0.0	-0.846	90.0	50.0	
6.0	0.0	0.0	1.0	0.0	-0.875	90.0	50.2	
7.0	0.0	0.0	1.0	0.0	-0.875	90.0	49.0	
8.0	0.0	0.0	1.0	0.0	-0.875	89.7	51.2	
9.0	0.0	0.0	1.0	0.0	-0.885	90.0	50.0	
10.0	0.0	0.0	1.0	0.0	-0.865	90.0	50.2	
11.0	0.0	0.0	1.0	0.0	-0.875	89.7	49.4	
12.0	0.0	0.0	1.0	0.0	-0.885	89.7	51.0	
13.0	0.0	0.0	1.0	0.0	-0.875	90.0	50.0	
14.0	0.0	0.0	1.0	0.0	-0.865	90.0	50.2	
15.0	0.0	0.0	1.0	0.0	-0.865	90.0	49.2	
0.0	0.0	0.0	1.0	0.0	-0.875	89.7	50.4	
1.0	0.0	0.0	1.0	0.0	-0.856	90.0	50.0	
2.0	0.0	0.0	1.0	0.0	-0.885	90.0	50.2	
3.0	0.0	0.0	1.0	0.0	-0.865	89.7	49.0	
4.0	0.0	0.0	1.0	0.0	-0.856	89.7	50.2	
5.0	0.0	0.0	1.0	0.0	-0.885	90.0	50.0	
6.0	0.0	0.0	1.0	0.0	-0.894	90.0	50.2	
7.0	0.0	0.0	1.0	0.0	-0.865	89.7	50.2	
8.0	0.0	0.0	1.0	0.0	-0.865	89.7	50.0	
9.0	0.0	0.0	1.0	0.0	-0.865	90.0	50.0	
10.0	0.0	0.0	1.0	0.0	-0.856	90.0	50.2	
11.0	0.0	0.0	1.0	0.0	-0.865	89.7	50.0	
12.0	0.0	0.0	1.0	0.0	-0.875	89.7	49.4	
13.0	0.0	0.0	1.0	0.0	-0.846	90.0	49.7	
14.0	0.0	0.0	1.0	0.0	-0.875	90.0	50.0	
15.0	0.0	0.0	1.0	0.0	-0.885	90.0	49.7	
0.0	0.0	0.0	1.0	0.0	-0.875	89.7	49.7	
1.0	0.0	0.0	1.0	0.0	-0.885	90.0	50.0	
2.0	0.0	0.0	1.0	0.0	-0.875	90.0	50.2	
3.0	0.0	0.0	1.0	0.0	-0.885	90.0	49.7	
4.0	0.0	0.0	1.0	0.0	-0.856	89.7	49.0	
5.0	0.0	0.0	1.0	0.0	-0.856	90.2	50.0	
6.0	0.0	0.0	1.0	0.0	-0.875	90.0	50.2	
7.0	0.0	0.0	1.0	0.0	-0.894	90.2	50.2	
8.0	0.0	0.0	1.0	0.0	-0.875	89.7	49.4	
9.0	0.0	0.0	1.0	0.0	-0.865	90.7	50.0	
10.0	0.0	0.0	1.0	0.0	-0.885	90.0	50.0	
11.0	0.0	0.0	1.0	0.0	-0.885	90.2	49.4	
12.0	0.0	0.0	1.0	0.0	-0.865	89.7	49.4	
13.0	0.0	0.0	1.0	0.0	-0.865	91.0	50.0	
14.0	0.0	0.0	1.0	0.0	-0.856	90.0	50.0	
15.0	0.0	0.0	1.0	0.0	-0.865	90.2	50.0	
0.0	0.0	0.0	1.0	0.0	-0.865	89.7	49.4	
1.0	0.0	0.0	1.0	0.0	-0.865	90.7	49.7	
2.0	0.0	0.0	1.0	0.0	-0.885	90.0	50.0	
3.0	0.0	0.0	1.0	0.0	-0.885	90.0	50.2	
4.0	0.0	0.0	1.0	0.0	-0.875	89.7	49.4	
5.0	0.0	0.0	1.0	0.0	-0.875	90.7	50.0	
6.0	0.0	0.0	1.0	0.0	-0.875	90.0	50.0	
7.0	0.0	0.0	1.0	0.0	-0.875	90.0	50.2	
8.0	0.0	0.0	1.0	0.0	-0.885	89.7	49.7	
9.0	0.0	0.0	1.0	0.0	-0.865	90.4	50.0	
10.0	0.0	0.0	1.0	0.0	-0.875	90.0	50.0	
11.0	0.0	0.0	1.0	0.0	-0.875	90.0	50.2	
12.0	0.0	0.0	1.0	0.0	-0.875	90.0	49.7	
13.0	0.0	0.0	1.0	0.0	-0.875	90.2	50.0	
14.0	0.0	0.0	1.0	0.0	-0.865	90.0	50.0	
15.0	0.0	0.0	1.0	0.0	-0.865	90.0	50.2	
0.0	0.0	0.0	1.0	0.0	-0.856	89.7	49.0	
1.0	0.0	0.0	1.0	0.0	-0.865	90.0	50.0	
2.0	0.0	0.0	1.0	0.0	-0.846	90.0	50.0	
3.0	0.0	0.0	1.0	0.0	-0.865	90.2	50.2	
4.0	0.0	0.0	1.0	0.0	-0.865	89.7	49.2	
5.0	0.0	0.0	1.0	0.0	-0.875	89.7	49.7	
6.0	0.0	0.0	1.0	0.0	-0.885	90.0	50.0	
7.0	0.0	0.0	1.0	0.0	-0.885	90.2	50.4	
8.0	0.0	0.0	1.0	0.0	-0.875	89.7	48.2	
9.0	0.0	0.0	1.0	0.0	-0.856	90.0	49.7	
10.0	0.0	0.0	1.0	0.0	-0.885	90.0	50.0	
11.0	0.0	0.0	1.0	0.0	-0.875	90.0	50.2	
12.0	0.0	0.0	1.0	0.0	-0.856	89.7	47.7	
13.0	0.0	0.0	1.0	0.0	-0.875	89.7	50.0	
14.0	0.0	0.0	1.0	0.0	-0.865	90.0	50.0	
15.0	0.0	0.0	1.0	0.0	-0.885	90.2	50.4	
0.0	0.0	0.0	1.0	0.0	-0.875	89.7	48.0	
1.0	0.0	0.0	1.0	0.0	-0.865	89.7	50.0	
2.0	0.0	0.0	1.0	0.0	-0.875	90.0	50.0	
3.0	0.0	0.0	1.0	0.0	-0.894	90.0	50.2	
4.0	0.0	0.0	1.0	0.0	-0.865	89.2	47.4	
5.0	0.0	0.0	1.0	0.0	-0.856	90.0	50.0	
6.0	0.0	0.0	1.0	0.0	-0.885	90.0	50.0	
7.0	0.0	0.0	1.0	0.0	-0.865	90.0	50.2	
8.0	0.0	0.0	1.0	0.0	-0.865	89.0	48.2	
9.0	0.0	0.0	1.0	0.0	-0.885	89.7	49.7	
10.0	0.0	0.0	1.0	0.0	-0.885	90.0	50.0	
11.0	0.0	0.0	1.0	0.0	-0.875	90.0	50.4	
12.0	0.0	0.0	1.0	0.0	-0.865	88.7	48.4	
13.0	0.0	0.0	1.0	0.0	-0.865	89.7	50.7	
14.0	0.0	0.0	1.0	0.0	-0.865	90.0	50.0	
15.0	0.0	0.0	1.0	0.0	-0.875	90.2	50.2	
0.0	0.0	0.0	1.0	0.0	-0.865	88.7	49.0	
1.0	0.0	0.0	1.0	0.0	-0.865	89.7	51.2	
2.0	0.0	0.0	1.0	0.0	-0.885	90.0	50.0	
3.0	0.0	0.0	1.0	0.0	-0.875	90.0	50.2	
4.0	0.0	0.0	1.0	0.0	-0.875	89.2	49.2	
5.0	0.0	0.0	1.0	0.0	-0.894	89.4	51.4	
6.0	0.0	0.0	1.0	0.0	-0.856	90.0	50.0	
7.0	0.0	0.0	1.0	0.0	-0.865	90.0	50.2	
8.0	0.0	0.0	1.0	0.0	-0.865	89.4	48.7	
9.0	0.0	0.0	1.0	0.0	-0.875	89.7	51.7	
10.0	0.0	0.0	1.0	0.0	-0.875	90.0	50.0	
11.0	0.0	0.0	1.0	0.0	-0.875	90.0	50.2	
12.0	0.0	0.0	1.0	0.0	-0.865	90.0	49.0	
13.0	0.0	0.0	1.0	0.0	-0.846	89.7	51.7	
14.0	0.0	0.0	1.0	0.0	-0.875	90.0	50.0	
15.0	0.0	0.0	1.0	0.0	-0.875	90.2	50.0	
0.0	0.0	0.0	1.0	0.0	-0.865	90.0	49.2	
1.0	0.0	0.0	1.0	0.0	-0.875	90.0	51.4	
2.0	0.0	0.0	1.0	0.0	-0.865	90.0	50.0	
3.0	0.0	0.0	1.0	0.0	-0.885	90.0	50.0	
4.0	0.0	0.0	1.0	0.0	-0.875	90.0	48.7	
5.0	0.0	0.0	1.0	0.0	-0.856	89.7	51.4	
6.0	0.0	0.0	1.0	0.0	-0.856	90.0	50.0	
7.0	0.0	0.0	1.0	0.0	-0.885	90.2	50.0	
8.0	0.0	0.0	1.0	0.0	-0.865	90.2	49.0	
9.0	0.0	0.0	1.0	0.0	-0.856	89.7	51.2	
10.0	0.0	0.0	1.0	0.0	-0.885	90.0	50.0	
11.0	0.0	0.0	1.0	0.0	-0.885	90.0	50.0	
12.0	0.0	0.0	1.0	0.0	-0.865	89.7	49.2	
13.0	0.0	0.0	1.0	0.0	-0.856	89.7	51.0	
14.0	0.0	0.0	1.0	0.0	-0.885	90.0	50.0	
15.0	0.0	0.0	1.0	0.0	-0.875	90.0	50.4	
0.0	0.0	0.0	1.0	0.0	-0.856	89.7	49.0	
1.0	0.0	0.0	1.0	0.0	-0.875	89.7	50.7	
2.0	0.0	0.0	1.0	0.0	-0.875	90.0	50.0	
3.0	0.0	0.0	1.0	0.0	-0.865	90.0	50.2	
4.0	0.0	0.0	1.0	0.0	-0.885	90.0	50.0	
5.0	0.0	0.0	1.0	0.0	-0.875	89.7	50.0	
6.0	0.0	0.0	1.0	0.0	-0.875	90.0	50.0	
7.0	0.0	0.0	1.0	0.0	-0.856	90.0	50.2	
8.0	0.0	0.0	1.0	0.0	-0.875	90.0	49.4	
9.0	0.0	0.0	1.0	0.0	-0.865	89.7	49.4	
10.0	0.0	0.0	1.0	0.0	-0.865	90.0	50.0	
11.0	0.0	0.0	1.0	0.0	-0.885	90.0	50.2	
12.0	0.0	0.0	1.0	0.0	-0.865	90.0	49.0	
13.0	0.0	0.0	1.0	0.0	-0.885	89.7	49.7	
14.0	0.0	0.0	1.0	0.0	-0.875	90.0	50.0	
15.0	0.0	0.0	1.0	0.0	-0.885	90.0	50.0	
0.0	0.0	0.0	1.0	0.0	-0.865	90.2	50.0	
1.0	0.0	0.0	1.0	0.0	-0.856	89.7	49.7	
2.0	0.0	0.0	1.0	0.0	-0.885	90.0	50.0	
3.0	0.0	0.0	1.0	0.0	-0.875	90.0	50.0	
4.0	0.0	0.0	1.0	0.0	-0.865	90.0	50.2	
5.0	0.0	0.0	1.0	0.0	-0.865	89.7	49.0	
6.0	0.0	0.0	1.0	0.0	-0.875	90.4	50.0	
7.0	0.0	0.0	1.0	0.0	-0.875	90.0	50.0	
8.0	0.0	0.0	1.0	0.0	-0.875	90.2	50.2	
9.0	0.0	0.0	1.0	0.0	-0.856	89.4	49.2	
10.0	0.0	0.0	1.0	0.0	-0.875	91.0	50.0	
11.0	0.0	0.0	1.0	0.0	-0.885	90.0	50.0	
12.0	0.0	0.0	1.0	0.0	-0.875	90.2	50.2	
13.0	0.0	0.0	1.0	0.0	-0.875	89.7	49.2	
14.0	0.0	0.0	1.0	0.0	-0.885	91.0	49.7	
15.0	0.0	0.0	1.0	0.0	-0.875	90.0	50.2	
0.0	0.0	0.0	1.0	0.0	-0.875	90.2	50.0	
1.0	0.0	0.0	1.0	0.0	-0.856	90.0	49.0	
2.0	0.0	0.0	1.0	0.0	-0.885	90.7	50.0	
3.0	0.0	0.0	1.0	0.0	-0.885	90.0	50.0	
4.0	0.0	0.0	1.0	0.0	-0.875	90.0	50.0	
5.0	0.0	0.0	1.0	0.0	-0.865	89.7	49.2	
6.0	0.0	0.0	1.0	0.0	-0.894	90.7	50.0	
7.0	0.0	0.0	1.0	0.0	-0.875	90.0	50.0	
8.0	0.0	0.0	1.0	0.0	-0.885	90.0	49.4	
9.0	0.0	0.0	1.0	0.0	-0.865	89.7	49.4	
10.0	0.0	0.0	1.0	0.0	-0.875	90.2	50.0	
11.0	0.0	0.0	1.0	0.0	-0.865	90.0	50.0	
12.0	0.0	0.0	1.0	0.0	-0.865	90.0	49.4	
13.0	0.0	0.0	1.0	0.0	-0.856	89.4	49.4	
14.0	0.0	0.0	1.0	0.0	-0.875	90.0	50.0	
15.0	0.0	0.0	1.0	0.0	-0.885	90.0	50.0	
0.0	0.0	0.0	1.0	0.0	-0.865	90.0	50.0	
1.0	0.0	0.0	1.0	0.0	-0.865	89.7	49.4	
2.0	0.0	0.0	1.0	0.0	-0.875	90.0	50.0	
3.0	0.0	0.0	1.0	0.0	-0.865	90.0	50.0	
4.0	0.0	0.0	1.0	0.0	-0.865	90.0	50.2	
5.0	0.0	0.0	1.0	0.0	-0.865	90.0	48.7	
6.0	0.0	0.0	1.0	0.0	-0.875	90.0	50.0	
7.0	0.0	0.0	1.0	0.0	-0.875	90.0	50.0	
8.0	0.0	0.0	1.0	0.0	-0.885	90.0	50.2	
9.0	0.0	0.0	1.0	0.0	-0.875	89.7	48.4	
10.0	0.0	0.0	1.0	0.0	-0.865	89.7	50.0	
11.0	0.0	0.0	1.0	0.0	-0.875	90.0	50.0	
12.0	0.0	0.0	1.0	0.0	-0.885	90.2	50.2	
13.0	0.0	0.0	1.0	0.0	2.683	89.7	47.4	
14.0	0.0	0.0	1.0	0.0	-1.606	90.0	50.0	
15.0	0.0	0.0	1.0	0.0	-0.962	90.0	50.0	
0.0	0.0	0.0	1.0	0.0	-0.673	90.2	50.4	
1.0	0.0	0.0	1.0	0.0	-1.221	89.7	47.4	
2.0	0.0	0.0	1.0	0.0	-1.49	89.7	50.0	
3.0	0.0	0.0	1.0	0.0	-1.538	90.0	50.0	
4.0	0.0	0.0	1.0	0.0	-1.125	90.0	50.2	
